Time,Channel B,Channel C
(ms),(V),(V)

-0.49999997,-6.42565000,-1.93352500
-0.24999998,-6.55048200,-1.02460000
0.00000000,-6.52453900,-0.27682820
0.24999998,-6.40489500,0.24752780
0.49999997,-6.17629100,0.67848860
0.74999995,-5.90098900,0.96416800
0.99999993,-5.56311800,1.34293700
1.24999991,-5.22555300,1.74276600
1.49999990,-4.83579500,2.28299400
1.74999988,-4.47717000,2.90593300
1.99999986,-4.07184700,3.67446000
2.24999984,-3.69246700,4.53119300
2.49999983,-3.24044700,5.41905700
2.74999981,-2.83512400,6.33317000
2.99999979,-2.38310300,7.15877200
3.24999978,-1.93108300,7.93767500
3.49999976,-1.44274200,8.65401100
3.74999974,-0.95958980,9.19942600
3.99999972,-0.36717130,9.55774600
4.24999971,0.23562450,9.56812400
4.49999969,0.92662680,9.23055700
4.74999967,1.63868900,8.69551900
4.99999966,2.27261600,8.41014500
5.24999964,2.79727700,8.26974700
5.49999962,3.30637300,8.17116400
5.74999960,3.72207300,8.00512800
5.99999959,4.13777300,7.74020200
6.24999957,4.54828500,7.34556200
6.49999955,4.92766400,6.79007400
6.74999953,5.27072400,6.05786800
6.99999952,5.62385600,5.17519200
7.24999950,5.96691500,4.13655200
7.49999948,6.23702800,3.02038800
7.74999947,6.43450100,1.97137100
7.99999945,6.52820200,1.01605400
8.24999943,6.49157600,0.27347090
8.49999941,6.42412400,-0.24050790
8.74999940,6.17476500,-0.65071420
8.99999938,5.88389700,-0.96752530
9.24999936,5.55640300,-1.30509100
9.49999935,5.21334400,-1.73605200
9.74999933,4.87577800,-2.24484200
9.99999931,4.47564400,-2.87846400
10.24999929,4.05994400,-3.66255600
10.49999928,3.67537500,-4.49853500
10.74999926,3.25448700,-5.35526800
10.99999924,2.86991800,-6.23275500
11.24999922,2.41789800,-7.09467700
11.49999921,1.96587700,-7.87358000
11.74999919,1.48272500,-8.55908900
11.99999917,0.96294710,-9.09382200
12.24999916,0.43309730,-9.46770900
12.49999914,-0.17488710,-9.48327400
12.74999912,-0.88664390,-9.16127400
12.99999910,-1.58832900,-8.63691800
13.24999909,-2.19600800,-8.32010700
13.49999907,-2.73654000,-8.19039200
13.74999905,-3.23007000,-8.10218500
13.99999904,-3.66133500,-7.95141000
14.24999902,-4.08741300,-7.71792200
14.49999900,-4.47717000,-7.33884800
14.74999898,-4.89287000,-6.79862000
14.99999897,-5.23074100,-6.12379500
15.24999895,-5.58387200,-5.25149500
15.49999893,-5.93730900,-4.27511900
15.74999891,-6.18666800,-3.15895500
15.99999890,-6.42046100,-2.10993800
16.24999888,-6.54529300,-1.14424400
16.49999886,-6.51416200,-0.40166040
16.74999885,-6.42046100,0.20601880
16.99999883,-6.21780000,0.59547060
17.24999881,-5.94768600,0.92754240
17.49999879,-5.60462700,1.26510800
17.74999878,-5.26187300,1.64937100
17.99999876,-4.92400200,2.15297300
18.24999874,-4.51349000,2.81253800
18.49999873,-4.13441600,3.56031000
18.74999871,-3.73428200,4.39110000
18.99999869,-3.30820400,5.27896500
19.24999867,-2.90288100,6.15126400
19.49999866,-2.47680400,7.01837300
19.74999864,-2.01959500,7.81284300
19.99999862,-1.54132600,8.55023800
20.24999860,-0.98553290,9.14235100
20.49999859,-0.47613230,9.52630900
20.74999857,0.14222930,9.64076400
20.99999855,0.82804300,9.31876500
21.24999854,1.54498800,8.81516300
21.49999852,2.17891600,8.42571100
21.74999850,2.74020300,8.28012500
21.99999848,3.21297800,8.18672900
22.24999847,3.68575300,8.05701400
22.49999845,4.05994400,7.83878600
22.74999843,4.50158700,7.43895700
22.99999841,4.85502400,6.85752600
23.24999840,5.25515800,6.17720700
23.49999838,5.58234600,5.27896500
23.74999836,5.93059400,4.28213900
23.99999835,6.17995400,3.17085800
24.24999833,6.40336900,2.11146400
24.49999831,6.55933300,1.15095800
24.74999829,6.55414500,0.37205470
24.99999828,6.40336900,-0.17824440
25.24999826,6.21108500,-0.58326210
25.49999824,5.94616000,-0.91563910
25.74999823,5.65498700,-1.25320500
25.99999821,5.27072400,-1.68416500
26.24999819,4.88615600,-2.14106900
26.49999817,4.50677600,-2.79025700
26.74999816,4.12220700,-3.52734700
26.99999814,3.71688400,-4.35813700
27.24999812,3.33262100,-5.23592900
27.49999810,2.91173200,-6.10822900
27.74999809,2.47527800,-6.95977300
27.99999807,2.00738600,-7.76980800
28.24999805,1.54498800,-8.46569300
28.49999804,1.00995000,-9.06788000
28.74999802,0.51092660,-9.43657700
28.99999800,-0.10224640,-9.55072600
29.24999798,-0.75692830,-9.23391500
29.49999797,-1.47387400,-8.71474700
29.74999795,-2.11299000,-8.39274800
29.99999793,-2.70022000,-8.22671200
30.24999792,-3.19893800,-8.12294000
30.49999790,-3.61982700,-8.00329600
30.74999788,-4.03033800,-7.77499700
30.99999786,-4.44603800,-7.43224200
31.24999785,-4.82541800,-6.91826400
31.49999783,-5.18923200,-6.26388700
31.74999781,-5.54755200,-5.40196600
31.99999779,-5.84910200,-4.39995100
32.24999778,-6.15553700,-3.30423600
32.49999776,-6.39451800,-2.22408700
32.74999774,-6.52972700,-1.25839300
32.99999773,-6.50897300,-0.44835790
33.24999771,-6.42565000,0.14894400
33.49999769,-6.22817700,0.56952750
33.74999767,-5.99438400,0.90678790
33.99999766,-5.68795000,1.22878800
34.24999764,-5.28781600,1.59229600
34.49999762,-4.96032200,2.10108700
34.74999761,-4.57605900,2.72433200
34.99999759,-4.20186800,3.43578300
35.24999757,-3.77579000,4.27695000
35.49999755,-3.39641100,5.15443800
35.74999754,-2.97033300,6.05786800
35.99999752,-2.54425600,6.92497900
36.24999750,-2.08704700,7.74539100
36.49999748,-1.57276300,8.47240800
36.74999747,-1.06336200,9.04865100
36.99999745,-0.53870100,9.46404600
37.24999743,0.07966060,9.59406700
37.49999742,0.72396530,9.36027300
37.74999740,1.46715900,8.84629400
37.99999738,2.07514300,8.46203100
38.24999736,2.67763400,8.30606700
38.49999735,3.15590300,8.17635200
38.74999733,3.59235700,8.05182600
38.99999731,4.00805800,7.81284300
39.24999729,4.43413500,7.47527700
39.49999728,4.80802100,6.93535600
39.74999726,5.19258900,6.28128400
39.99999724,5.54083700,5.41905700
40.24999723,5.85764800,4.43779800
40.49999721,6.16438800,3.38359200
40.74999719,6.38261500,2.27261600
40.99999717,6.49676500,1.29105100
41.24999716,6.53857900,0.47063850
41.49999714,6.43969000,-0.11598100
41.74999712,6.26816000,-0.53137590
41.99999711,5.99285800,-0.86894150
42.24999709,5.64979800,-1.19094100
42.49999707,5.31223300,-1.57001600
42.74999705,4.96917300,-2.07880600
42.99999704,4.59498200,-2.70693400
43.24999702,4.18996400,-3.43914100
43.49999700,3.81577300,-4.24398700
43.74999698,3.36894200,-5.09034300
43.99999697,2.94805300,-6.02521000
44.24999695,2.54791800,-6.84043500
44.49999693,2.07514300,-7.65565900
44.74999692,1.59687500,-8.37718200
44.99999690,1.11891100,-8.95373000
45.24999688,0.55243560,-9.39506700
45.49999686,-0.01892321,-9.51440600
45.74999685,-0.66841660,-9.32242700
45.99999683,-1.40123300,-8.83408600
46.24999681,-2.01440600,-8.43944500
46.49999680,-2.61170800,-8.25784400
46.74999678,-3.12629700,-8.16444900
46.99999676,-3.57312900,-8.01367400
47.24999674,-3.98882900,-7.84763800
47.49999673,-4.39415200,-7.50488300
47.74999671,-4.76315500,-7.00647000
47.99999669,-5.15779500,-6.36247100
48.24999667,-5.51642000,-5.55243500
48.49999666,-5.81247700,-4.53485500
48.74999664,-6.10883900,-3.47027200
48.99999662,-6.33744300,-2.38005100
49.24999661,-6.50378500,-1.38292000
49.49999659,-6.55048200,-0.54694180
49.74999657,-6.50378500,0.07599805
49.99999655,-6.27518000,0.46544990
50.24999654,-6.05176400,0.82377000
