Time,Channel B,Channel C
(ms),(V),(V)

-0.49999997,-6.44121600,-2.01379600
-0.24999998,-6.52972700,-1.04871200
0.00000000,-6.52972700,-0.31497990
0.24999998,-6.39451800,0.25149550
0.49999997,-6.18147900,0.61836160
0.74999995,-5.90617800,0.96447320
0.99999993,-5.57868400,1.31058500
1.24999991,-5.23592900,1.71957000
1.49999990,-4.86692700,2.21218400
1.74999988,-4.50311300,2.85191100
1.99999986,-4.08222400,3.60700800
2.24999984,-3.68727900,4.46709800
2.49999983,-3.30301500,5.36930800
2.74999981,-2.86656100,6.23916500
2.99999979,-2.41423500,7.10963200
3.24999978,-1.95702600,7.90684900
3.49999976,-1.47906200,8.59907200
3.74999974,-0.96996700,9.17592400
3.99999972,-0.42943470,9.51104800
4.24999971,0.20449270,9.55316800
4.49999969,0.89030640,9.23879800
4.74999967,1.61762900,8.74557400
4.99999966,2.23599100,8.42082800
5.24999964,2.76095700,8.25296000
5.49999962,3.29080700,8.13758900
5.74999960,3.68575300,8.01184200
5.99999959,4.12220700,7.74935900
6.24999957,4.54309600,7.37211600
6.49999955,4.88615600,6.81601800
6.74999953,5.26553500,6.08228500
6.99999952,5.64461000,5.23257200
7.24999950,5.93578300,4.18386000
7.49999948,6.24740600,3.10401700
7.74999947,6.43969000,2.03394000
7.99999945,6.52301300,1.05908900
8.24999943,6.52820200,0.33512390
8.49999941,6.41893500,-0.23074110
8.74999940,6.20589700,-0.65071420
8.99999938,5.92021700,-0.96508360
9.24999936,5.56159200,-1.27945300
9.49999935,5.21853300,-1.69942600
9.74999933,4.88096700,-2.24453700
9.99999931,4.50677600,-2.85252100
10.24999929,4.09626400,-3.59724100
10.49999928,3.68575300,-4.42558900
10.74999926,3.30118400,-5.26492500
10.99999924,2.88548400,-6.17690100
11.24999922,2.42827500,-7.00586000
11.49999921,1.99700900,-7.82383100
11.74999919,1.50347900,-8.49468900
11.99999917,0.99957270,-9.06116500
12.24999916,0.46422900,-9.41765300
12.49999914,-0.17488710,-9.49090500
12.74999912,-0.83475760,-9.21804400
12.99999910,-1.56726900,-8.68331100
13.24999909,-2.15449900,-8.37931800
13.49999907,-2.72097400,-8.23281700
13.74999905,-3.22488100,-8.09608100
13.99999904,-3.67171300,-7.97033300
14.24999902,-4.06147000,-7.72921500
14.49999900,-4.47198200,-7.38310300
14.74999898,-4.85136100,-6.86912400
14.99999897,-5.21517500,-6.18788900
15.24999895,-5.57868400,-5.31742100
15.49999893,-5.88542300,-4.33158300
15.74999891,-6.16072500,-3.24075200
15.99999890,-6.39451800,-2.16090800
16.24999888,-6.52453900,-1.18544700
16.49999886,-6.51935100,-0.43035040
16.74999885,-6.43083900,0.16725670
16.99999883,-6.24374300,0.57624220
17.24999881,-5.98400700,0.89122210
17.49999879,-5.63606400,1.24771100
17.74999878,-5.27743900,1.64631900
17.99999876,-4.89805900,2.13893300
18.24999874,-4.55530500,2.74752800
18.49999873,-4.14998100,3.49163700
18.74999871,-3.74465900,4.35172700
18.99999869,-3.32895900,5.22219500
19.24999867,-2.93401300,6.10304000
19.49999866,-2.49755800,7.02600400
19.74999864,-2.00921800,7.83359800
19.99999862,-1.54132600,8.55695200
20.24999860,-1.05817400,9.15456000
20.49999859,-0.47094370,9.53241300
20.74999857,0.10560370,9.56354500
20.99999855,0.79172260,9.30167200
21.24999854,1.55536600,8.78769400
21.49999852,2.13740700,8.43120500
21.74999850,2.70388200,8.28409200
21.99999848,3.22854400,8.13758900
22.24999847,3.67018700,8.01184200
22.49999845,4.07551000,7.78110100
22.74999843,4.48083300,7.44536700
22.99999841,4.85502400,6.90025600
23.24999840,5.21334400,6.20803300
23.49999838,5.57715800,5.35832000
23.74999836,5.84208300,4.36210500
23.99999835,6.16957600,3.25051900
24.24999833,6.38261500,2.16029800
24.49999831,6.53339000,1.20559100
24.74999829,6.54376700,0.37724330
24.99999828,6.44487900,-0.17885480
25.24999826,6.23702800,-0.57685260
25.49999824,5.96172600,-0.91258700
25.74999823,5.62385600,-1.23794400
25.99999821,5.28629000,-1.65730700
26.24999819,4.90172100,-2.13954300
26.49999817,4.57422800,-2.77927000
26.74999816,4.14296200,-3.49224800
26.99999814,3.77426400,-4.32120600
27.24999812,3.33781000,-5.15993200
27.49999810,2.95843000,-6.09327300
27.74999809,2.50640900,-6.91124400
27.99999807,2.03851800,-7.68709600
28.24999805,1.55536600,-8.41106000
28.49999804,1.05664800,-8.99829100
28.74999802,0.53686970,-9.37553400
28.99999800,-0.06043218,-9.48052700
29.24999798,-0.72579660,-9.27054000
29.49999797,-1.44793100,-8.76755000
29.74999795,-2.09742400,-8.38969600
29.99999793,-2.65871100,-8.24319400
30.24999792,-3.17299500,-8.11744600
30.49999790,-3.60426100,-7.98071100
30.74999788,-4.04071500,-7.70846000
30.99999786,-4.40452900,-7.42522300
31.24999785,-4.78390900,-6.92162100
31.49999783,-5.18923200,-6.23977500
31.74999781,-5.51123200,-5.46392400
31.99999779,-5.86466800,-4.45733100
32.24999778,-6.11921600,-3.35612200
32.49999776,-6.34263200,-2.27566800
32.74999774,-6.48303000,-1.30081800
32.99999773,-6.54529300,-0.52435600
33.24999771,-6.43602700,0.09400561
33.49999769,-6.26999100,0.52374550
33.74999767,-6.01513900,0.84910270
33.99999766,-5.70351600,1.20559100
34.24999764,-5.34489100,1.56208000
34.49999762,-4.97619300,2.06568200
34.74999761,-4.60200200,2.66328900
34.99999759,-4.22781100,3.36588900
35.24999757,-3.79654500,4.22598000
35.49999755,-3.42235400,5.10682400
35.74999754,-2.97552200,5.99804600
35.99999752,-2.56501000,6.88987900
36.24999750,-2.08704700,7.69686200
36.49999748,-1.60389400,8.43120500
36.74999747,-1.10487100,9.02881200
36.99999745,-0.56983270,9.42742100
37.24999743,0.01739714,9.60566400
37.49999742,0.69283360,9.35416900
37.74999740,1.42565000,8.86094500
37.99999738,2.05438900,8.49407900
38.24999736,2.63612500,8.32621200
38.49999735,3.13514800,8.19008600
38.74999733,3.59235700,8.07471600
38.99999731,3.97692600,7.85435200
39.24999729,4.39262600,7.50824100
39.49999728,4.79245500,7.01562700
39.74999726,5.18221200,6.35453600
39.99999724,5.48895100,5.53656400
40.24999723,5.84727100,4.52997200
40.49999721,6.16438800,3.37626600
40.74999719,6.36704900,2.29642300
40.99999717,6.51751900,1.30020700
41.24999716,6.56971100,0.51336830
41.49999714,6.46563300,-0.11537050
41.74999712,6.27334900,-0.50360150
41.99999711,6.00842400,-0.87046750
42.24999709,5.66536400,-1.22756700
42.49999707,5.31742100,-1.59443300
42.74999705,4.97436200,-2.06629200
42.99999704,4.58460500,-2.65352200
43.24999702,4.21590800,-3.39824200
43.49999700,3.81577300,-4.19484800
43.74999698,3.41563900,-5.07569300
43.99999697,2.98437300,-5.95714800
44.24999695,2.53754100,-6.80625100
44.49999693,2.09589800,-7.59309000
44.74999692,1.65425500,-8.30606700
44.99999690,1.13966500,-8.94579400
45.24999688,0.59424980,-9.35477900
45.49999686,0.01739714,-9.51165900
45.74999685,-0.62690760,-9.33341500
45.99999683,-1.34385300,-8.84080000
46.24999681,-2.02478300,-8.43181500
46.49999680,-2.59095300,-8.26394800
46.74999678,-3.07960000,-8.15895500
46.99999676,-3.56275200,-8.02283000
47.24999674,-3.93175400,-7.82383100
47.49999673,-4.34226600,-7.49847400
47.74999671,-4.75247200,-7.01623700
47.99999669,-5.09553100,-6.39726500
48.24999667,-5.47491100,-5.60004900
48.49999666,-5.79172200,-4.63557600
48.74999664,-6.11402800,-3.52399000
48.99999662,-6.35300900,-2.44353600
49.24999661,-6.49340700,-1.43694300
49.49999659,-6.54529300,-0.59821750
49.74999657,-6.48821900,0.04150897
49.99999655,-6.31668900,0.47185930
50.24999654,-6.05695200,0.80698320
