Time,Channel B,Channel C
(ms),(V),(V)

-0.49999997,-6.37895300,-2.26040800
-0.24999998,-6.50378500,-1.29990200
0.00000000,-6.56085900,-0.48467830
0.24999998,-6.46746400,0.10712980
0.49999997,-6.24374300,0.54358440
0.74999995,-5.97362900,0.87046750
0.99999993,-5.66200700,1.19765600
1.24999991,-5.32932500,1.58710800
1.49999990,-4.96551100,2.06476600
1.74999988,-4.59162500,2.67763400
1.99999986,-4.22262200,3.42021700
2.24999984,-3.82248800,4.25619600
2.49999983,-3.40159900,5.11292900
2.74999981,-2.97552200,6.04230300
2.99999979,-2.54425600,6.88865800
3.24999978,-2.08704700,7.70907100
3.49999976,-1.61427200,8.47240800
3.74999974,-1.10487100,9.05902800
3.99999972,-0.57502140,9.47961100
4.24999971,0.02258576,9.60444400
4.49999969,0.71358810,9.34989600
4.74999967,1.43083900,8.83591700
4.99999966,2.08033200,8.47240800
5.24999964,2.64650200,8.29569100
5.49999962,3.14552500,8.18154000
5.74999960,3.60792300,8.04663700
5.99999959,4.01843500,7.82322000
6.24999957,4.40300300,7.48565500
6.49999955,4.78726600,6.97167600
6.74999953,5.16145800,6.28128400
6.99999952,5.51489400,5.45568300
7.24999950,5.85764800,4.47411800
7.49999948,6.13325600,3.41502900
7.74999947,6.37223800,2.31931400
7.99999945,6.50714200,1.32737100
8.24999943,6.52820200,0.51214750
8.49999941,6.46044400,-0.07966060
8.74999940,6.29929200,-0.53137590
8.99999938,5.99285800,-0.87931880
9.24999936,5.68123500,-1.19094100
9.49999935,5.33817600,-1.55445000
9.74999933,4.95879600,-2.06324000
9.99999931,4.57941600,-2.66023700
10.24999929,4.20034200,-3.41319700
10.49999928,3.82615100,-4.21285500
10.74999926,3.43120500,-5.08515500
10.99999924,2.97918400,-5.95745300
11.24999922,2.56348400,-6.83524600
11.49999921,2.11665200,-7.62941000
11.74999919,1.63350000,-8.36680500
11.99999917,1.12928800,-8.95373000
12.24999916,0.59424980,-9.37431300
12.49999914,-0.01373459,-9.52997200
12.74999912,-0.65285070,-9.31723800
12.99999910,-1.38047900,-8.82370900
13.24999909,-2.00921800,-8.45501100
13.49999907,-2.58576500,-8.25784400
13.74999905,-3.11073100,-8.14369400
13.99999904,-3.57831800,-8.07105400
14.24999902,-3.98882900,-7.81650600
14.49999900,-4.38896300,-7.47375200
14.74999898,-4.77872000,-7.00128200
14.99999897,-5.11109700,-6.36766000
15.24999895,-5.50604300,-5.51611500
15.49999893,-5.79172200,-4.57636400
15.74999891,-6.12440500,-3.48064900
15.99999890,-6.34263200,-2.40080600
16.24999888,-6.50378500,-1.40367500
16.49999886,-6.52972700,-0.58326210
16.74999885,-6.47784100,0.06043218
16.99999883,-6.29074600,0.50177030
17.24999881,-6.01513900,0.83933590
17.49999879,-5.72427000,1.14058100
17.74999878,-5.37083400,1.50927800
17.99999876,-5.01770200,1.99731400
18.24999874,-4.64351100,2.57874500
18.49999873,-4.25894300,3.30057400
18.74999871,-3.84843100,4.13655200
18.99999869,-3.47424000,5.00366300
19.24999867,-3.01703100,5.91777600
19.49999866,-2.60133100,6.78488600
19.74999864,-2.15968800,7.60529900
19.99999862,-1.67134700,8.37382500
20.24999860,-1.17262900,8.97601000
20.49999859,-0.64247350,9.44848000
20.74999857,-0.02930045,9.60963200
20.99999855,0.63057010,9.42253700
21.24999854,1.34232700,8.91893500
21.49999852,1.98663200,8.53467200
21.74999850,2.58423900,8.32712700
21.99999848,3.07258000,8.21786100
22.24999847,3.54566000,8.06220200
22.49999845,3.97173700,7.86991800
22.74999843,4.38713200,7.53784600
22.99999841,4.75613500,7.05988300
23.24999840,5.12513700,6.42656600
23.49999838,5.49414000,5.61653000
23.74999836,5.81095100,4.62458800
23.99999835,6.14882200,3.53436700
24.24999833,6.34110600,2.42827500
24.49999831,6.51233100,1.42626000
24.74999829,6.54895600,0.61103650
24.99999828,6.48119900,-0.03815163
25.24999826,6.29929200,-0.48986690
25.49999824,6.02399000,-0.80667810
25.74999823,5.71236700,-1.11830100
25.99999821,5.36930800,-1.53888400
26.24999819,5.01587100,-1.96984500
26.49999817,4.65755100,-2.58240700
26.74999816,4.25222800,-3.30423600
26.99999814,3.86766000,-4.08832800
27.24999812,3.44158200,-4.98138200
27.49999810,3.03625900,-5.84330400
27.74999809,2.61537100,-6.68447100
27.99999807,2.17891600,-7.47375200
28.24999805,1.71651800,-8.25784400
28.49999804,1.22298900,-8.87590000
28.74999802,0.67726770,-9.32761600
28.99999800,0.12116960,-9.51440600
29.24999798,-0.55426690,-9.33799300
29.49999797,-1.25564600,-8.89146600
29.74999795,-1.92070600,-8.47607100
29.99999793,-2.51312400,-8.27341000
30.24999792,-3.02221900,-8.16444900
30.49999790,-3.49011100,-8.05548800
30.74999788,-3.91618800,-7.86320400
30.99999786,-4.30564000,-7.52563800
31.24999785,-4.71615200,-7.10505400
31.49999783,-5.07996600,-6.45617200
31.74999781,-5.44377900,-5.67726800
31.99999779,-5.75540200,-4.73721200
32.24999778,-6.08808400,-3.65736800
32.49999776,-6.33225500,-2.55646400
32.74999774,-6.48303000,-1.53888400
32.99999773,-6.55567100,-0.70809420
33.24999771,-6.48303000,-0.03815163
33.49999769,-6.33744300,0.43431820
33.74999767,-6.07770700,0.78226100
33.99999766,-5.76577900,1.09907200
34.24999764,-5.45415700,1.47814700
34.49999762,-5.06440000,1.93505100
34.74999761,-4.70058600,2.51648100
34.99999759,-4.32120600,3.20199000
35.24999757,-3.91618800,4.04315700
35.49999755,-3.47942900,4.88951300
35.74999754,-3.08478800,5.78775500
35.99999752,-2.65871100,6.70705700
36.24999750,-2.22744500,7.50671400
36.49999748,-1.75955300,8.29050200
36.74999747,-1.22970300,8.91893500
36.99999745,-0.68917100,9.41734800
37.24999743,-0.12300090,9.63557500
37.49999742,0.50054940,9.45885800
37.74999740,1.22817700,8.99157600
37.99999738,1.91918000,8.57099200
38.24999736,2.51159800,8.33750400
38.49999735,3.02069300,8.20229500
38.74999733,3.48309100,8.06739000
38.99999731,3.92473400,7.87510700
39.24999729,4.29892500,7.60011000
39.49999728,4.69906000,7.15877200
39.74999726,5.09400600,6.52514900
39.99999724,5.43157100,5.72030300
40.24999723,5.78500800,4.79092900
40.49999721,6.07068700,3.69521400
40.74999719,6.33591700,2.61018200
40.99999717,6.50714200,1.57673000
41.24999716,6.54895600,0.68886580
41.49999714,6.51751900,0.07599805
41.74999712,6.33591700,-0.43279210
41.99999711,6.08106500,-0.77554630
42.24999709,5.77463100,-1.10273500
42.49999707,5.42119400,-1.48150400
42.74999705,5.04730800,-1.92314700
42.99999704,4.65755100,-2.48382400
43.24999702,4.31968000,-3.18489800
43.49999700,3.90398000,-3.98455600
43.74999698,3.50903400,-4.82572300
43.99999697,3.09852300,-5.71877700
44.24999695,2.67763400,-6.58069800
44.49999693,2.21004700,-7.43224200
44.74999692,1.77878200,-8.16963800
44.99999690,1.25412000,-8.80295500
45.24999688,0.74990840,-9.29648400
45.49999686,0.18892690,-9.48327400
45.74999685,-0.47094370,-9.41063300
45.99999683,-1.15706300,-8.97448400
46.24999681,-1.85325400,-8.50201400
46.49999680,-2.47161500,-8.32010700
46.74999678,-2.97552200,-8.19039200
46.99999676,-3.41197700,-8.06067700
47.24999674,-3.83805400,-7.88395800
47.49999673,-4.27969700,-7.57233500
47.74999671,-4.62275600,-7.10505400
47.99999669,-5.02808000,-6.57551000
48.24999667,-5.37083400,-5.78622900
48.49999666,-5.68795000,-4.85685500
48.74999664,-6.02032700,-3.81302600
48.99999662,-6.26999100,-2.71731200
49.24999661,-6.45159300,-1.68935400
49.49999659,-6.54010500,-0.79111220
49.74999657,-6.50897300,-0.11598100
49.99999655,-6.35300900,0.37205470
50.24999654,-6.09846200,0.70443170
