Time,Channel B,Channel C
(ms),(V),(V)

-0.49999997,-6.41527300,-2.17739000
-0.24999998,-6.51935100,-1.22726200
0.00000000,-6.54010500,-0.43798070
0.24999998,-6.45159300,0.14894400
0.49999997,-6.25961400,0.56952750
0.74999995,-5.98400700,0.89641070
0.99999993,-5.66200700,1.21841000
1.24999991,-5.31894700,1.62342800
1.49999990,-4.95513300,2.12184100
1.74999988,-4.57605900,2.72433200
1.99999986,-4.19667900,3.49804700
2.24999984,-3.79654500,4.31327100
2.49999983,-3.38603300,5.20113500
2.74999981,-2.95995600,6.02673700
2.99999979,-2.52350100,6.98205300
3.24999978,-2.08704700,7.76614600
3.49999976,-1.56208000,8.47759700
3.74999974,-1.05298500,9.10572500
3.99999972,-0.52832380,9.48998900
4.24999971,0.08484922,9.59406700
4.49999969,0.74471980,9.33951900
4.74999967,1.46715900,8.83072900
4.99999966,2.10627500,8.46203100
5.24999964,2.66725700,8.31675000
5.49999962,3.19741200,8.18672900
5.74999960,3.61830000,8.06220200
5.99999959,4.01843500,7.81284300
6.24999957,4.43932300,7.46490000
6.49999955,4.82389200,6.91979000
6.74999953,5.18740100,6.28647300
6.99999952,5.57715800,5.40868000
7.24999950,5.88389700,4.41185400
7.49999948,6.17476500,3.30576200
7.74999947,6.38780400,2.18441000
7.99999945,6.52301300,1.24435400
8.24999943,6.54376700,0.44469540
8.49999941,6.45006700,-0.13673540
8.74999940,6.26816000,-0.51581000
8.99999938,5.96172600,-0.88450740
9.24999936,5.64979800,-1.18575300
9.49999935,5.29666700,-1.62709100
9.74999933,4.95360800,-2.10474900
9.99999931,4.55866200,-2.68618000
10.24999929,4.17409300,-3.43395200
10.49999928,3.79501900,-4.26474200
10.74999926,3.40007300,-5.10590900
10.99999924,2.96361900,-5.98339700
11.24999922,2.53235200,-6.82456400
11.49999921,2.08033200,-7.66603600
11.74999919,1.61244000,-8.37199300
11.99999917,1.09815600,-8.97448400
12.24999916,0.56311800,-9.38469000
12.49999914,-0.04486632,-9.54553800
12.74999912,-0.66841660,-9.28610600
12.99999910,-1.40642200,-8.81333200
13.24999909,-2.06629200,-8.41350300
13.49999907,-2.60133100,-8.25784400
13.74999905,-3.11592000,-8.14888300
13.99999904,-3.56275200,-8.01367400
14.24999902,-3.99401800,-7.78537400
14.49999900,-4.40971800,-7.45818600
14.74999898,-4.79428600,-6.97015000
14.99999897,-5.13185200,-6.33652800
15.24999895,-5.49047700,-5.49536100
15.49999893,-5.81247700,-4.52966600
15.74999891,-6.12959300,-3.42876300
15.99999890,-6.34263200,-2.35929700
16.24999888,-6.51416200,-1.36216600
16.49999886,-6.55567100,-0.55213040
16.74999885,-6.47784100,0.06043218
16.99999883,-6.27518000,0.51733610
17.24999881,-6.03589300,0.82895860
17.49999879,-5.72427000,1.17690100
17.74999878,-5.37083400,1.54559900
17.99999876,-5.00213600,2.03882300
18.24999874,-4.61238000,2.65169100
18.49999873,-4.22262200,3.36802600
18.74999871,-3.86399700,4.15730700
18.99999869,-3.43273100,5.02960500
19.24999867,-2.99108800,5.95928400
19.49999866,-2.57538700,6.83677200
19.74999864,-2.11299000,7.66237300
19.99999862,-1.67134700,8.39457900
20.24999860,-1.13600300,9.01233000
20.49999859,-0.60615310,9.45366900
20.74999857,-0.02411183,9.58369000
20.99999855,0.63057010,9.39659400
21.24999854,1.33713800,8.89818100
21.49999852,2.00219800,8.53467200
21.74999850,2.59461600,8.34788100
21.99999848,3.09333400,8.21267200
22.24999847,3.57679200,8.10371100
22.49999845,3.98211500,7.86472900
22.74999843,4.39781500,7.52746900
22.99999841,4.76651200,7.04431700
23.24999840,5.14589200,6.38505600
23.49999838,5.48376300,5.56464400
23.74999836,5.82651700,4.52600400
23.99999835,6.13325600,3.46172600
24.24999833,6.35148300,2.41270900
24.49999831,6.50714200,1.35331500
24.74999829,6.54376700,0.55396160
24.99999828,6.48638700,-0.06928336
25.24999826,6.27853700,-0.51062140
25.49999824,6.02917800,-0.86894150
25.74999823,5.70717900,-1.17018700
25.99999821,5.33817600,-1.54407300
26.24999819,4.98473900,-2.04248600
26.49999817,4.61604200,-2.60316200
26.74999816,4.23147300,-3.33536800
26.99999814,3.82615100,-4.12983800
27.24999812,3.42601600,-5.01251400
27.49999810,3.00512700,-5.88481200
27.74999809,2.59980500,-6.74154600
27.99999807,2.12703000,-7.56714700
28.24999805,1.65425500,-8.33048400
28.49999804,1.17598600,-8.90703200
28.74999802,0.65132460,-9.33799300
28.99999800,0.04852887,-9.51959400
29.24999798,-0.62171890,-9.34318200
29.49999797,-1.31272100,-8.86002900
29.74999795,-1.99884000,-8.40831400
29.99999793,-2.55463300,-8.25265500
30.24999792,-3.05335100,-8.12294000
30.49999790,-3.53162000,-8.00329600
30.74999788,-3.92137700,-7.77499700
30.99999786,-4.31082900,-7.47375200
31.24999785,-4.71615200,-7.02203600
31.49999783,-5.10072000,-6.45098300
31.74999781,-5.44377900,-5.64613600
31.99999779,-5.76577900,-4.69051400
32.24999778,-6.06733000,-3.59510400
32.49999776,-6.30631200,-2.53571000
32.74999774,-6.48303000,-1.48150400
32.99999773,-6.52972700,-0.66109140
33.24999771,-6.49340700,0.01373459
33.49999769,-6.29593500,0.46544990
33.74999767,-6.04138700,0.78744960
33.99999766,-5.74502500,1.09907200
34.24999764,-5.39677700,1.49371300
34.49999762,-5.05402300,1.97137100
34.74999761,-4.70577500,2.54242500
34.99999759,-4.29007400,3.24868800
35.24999757,-3.90031700,4.06910000
35.49999755,-3.46905100,4.93102200
35.74999754,-3.07960000,5.82926400
35.99999752,-2.61689700,6.70705700
36.24999750,-2.19081900,7.54303500
36.49999748,-1.70766700,8.32193900
36.74999747,-1.20894900,8.92931300
36.99999745,-0.68917100,9.39140500
37.24999743,-0.09186912,9.60963200
37.49999742,0.52649250,9.45885800
37.74999740,1.24893200,8.97601000
37.99999738,1.92436800,8.55023800
38.24999736,2.51678700,8.33231500
38.49999735,3.03625900,8.23342700
38.74999733,3.49346800,8.09852200
38.99999731,3.91435700,7.86991800
39.24999729,4.31968000,7.57416700
39.49999728,4.73019200,7.09132000
39.74999726,5.09400600,6.48882900
39.99999724,5.44194800,5.67879400
40.24999723,5.79538500,4.70791100
40.49999721,6.09144200,3.61738500
40.74999719,6.35148300,2.52685900
40.99999717,6.50714200,1.46777000
41.24999716,6.52301300,0.65254550
41.49999714,6.48638700,0.03448907
41.74999712,6.31516300,-0.42241480
41.99999711,6.05512100,-0.78592350
42.24999709,5.75906500,-1.10792300
42.49999707,5.40562800,-1.48669300
42.74999705,5.03174200,-1.97503400
42.99999704,4.67311700,-2.53052100
43.24999702,4.30930300,-3.20565200
43.49999700,3.90916800,-4.00012200
43.74999698,3.50903400,-4.89317500
43.99999697,3.06739100,-5.78104000
44.24999695,2.67244500,-6.63258500
44.49999693,2.19967000,-7.47894000
44.74999692,1.75802700,-8.20076900
44.99999690,1.22817700,-8.83408600
45.24999688,0.72396530,-9.32761600
45.49999686,0.15779510,-9.53516000
45.74999685,-0.49169820,-9.41063300
45.99999683,-1.19857200,-8.93297500
46.24999681,-1.88957400,-8.49163700
46.49999680,-2.47680400,-8.28378700
46.74999678,-2.98071100,-8.15407200
46.99999676,-3.45348500,-8.08143000
47.24999674,-3.87956300,-7.86839200
47.49999673,-4.28488600,-7.58790100
47.74999671,-4.66945400,-7.15694000
47.99999669,-5.07477700,-6.53918900
48.24999667,-5.40745900,-5.76547400
48.49999666,-5.72427000,-4.83091200
48.74999664,-6.07251800,-3.76114000
48.99999662,-6.31150100,-2.61872800
49.24999661,-6.48303000,-1.61152500
49.49999659,-6.52972700,-0.75479190
49.74999657,-6.50897300,-0.08484922
49.99999655,-6.34782100,0.39799780
50.24999654,-6.10365000,0.76150650
