Time,Channel B,Channel C
(ms),(V),(V)

-0.49587909,-8.12233000,-23.42815000
-0.24587910,-12.04554000,-6.55597600
0.00412088,-12.48565000,0.10987670
0.25412086,-11.08045000,0.91716520
0.50412084,-8.43669900,1.59473800
0.75412083,-5.61530900,3.78159000
1.00412081,-3.42326900,10.55121000
1.25412079,-1.78671700,19.92431000
1.50412078,-0.12941030,28.95861000
1.75412076,1.93688200,35.38945000
2.00412074,4.73751700,37.10780000
2.25412072,7.04553700,38.46295000
2.50412071,7.24453600,13.05091000
2.75412069,7.23415900,4.30197800
3.00412067,7.24453600,0.96905140
3.25412066,7.22378200,0.23959220
3.50412064,7.11878900,-0.09766817
3.75412062,7.04553700,-0.30673910
4.00412060,6.89842500,-0.25485290
4.25412059,5.57685300,-3.11927700
4.50412057,3.64668500,-8.92442900
4.75412055,2.12550400,-16.86607000
5.00412053,0.65742890,-24.36516000
5.25412052,-0.96874620,-29.78116000
5.50412050,-3.12965400,-31.13478000
5.75412048,-5.13307300,-30.89977000
6.00412047,-6.81113400,-28.16658000
6.25412045,-9.32853100,-18.03809000
6.50412043,-12.86351000,-0.59363940
6.75412041,-12.21340000,0.42272000
7.00412040,-10.03113000,1.17812200
7.25412038,-7.24148500,2.14106900
7.50412036,-4.56659700,6.02032700
7.75412035,-2.70968100,14.43047000
8.00412033,-1.10487100,23.98517000
8.25412031,0.66780610,32.18777000
8.50412029,3.08021000,36.63930000
8.75412028,5.80759400,37.96698000
9.00412026,7.20241700,23.64791000
9.25412024,7.23415900,8.62379500
9.50412022,7.30741000,2.14106900
9.75412021,7.24453600,0.47460630
10.00412019,7.21279400,0.13581980
10.25412017,7.11878900,-0.25485290
10.50412016,7.04553700,-0.22890980
10.75412014,6.74093500,-0.93089970
11.00412012,4.72713900,-5.04517100
11.25412010,2.98559400,-12.04981000
11.50412009,1.54865100,-20.12117000
11.75412007,0.01709193,-26.91674000
12.00412005,-1.75558500,-30.92571000
12.25412003,-4.09412800,-30.74411000
12.50412002,-5.67818300,-30.66628000
12.75412000,-7.53510000,-25.30216000
13.00411998,-11.08045000,-10.22616000
13.25411997,-12.38127000,-0.01983885
13.50411995,-11.47906000,0.78744960
13.75411993,-8.94030000,1.43755300
14.00411991,-6.06641400,3.18184600
14.25411990,-3.73763900,9.04041000
14.50411988,-2.04920000,18.30973000
14.75411986,-0.42302530,27.60499000
15.00411985,1.54865100,34.60963000
15.25411983,4.26565700,36.97808000
15.50411981,6.61518700,38.95739000
15.75411979,7.18166300,16.38231000
16.00411978,7.19204000,4.90019500
16.25411976,7.20241700,1.33378100
16.50411974,7.16090800,0.39677690
16.75411972,7.16090800,-0.12513730
17.00411971,7.07666900,-0.20296670
17.25411969,6.92955700,-0.30673910
17.50411967,5.98583800,-2.51953400
17.75411966,3.90916800,-7.67458200
18.00411964,2.38798700,-15.56434000
18.25411962,0.89854720,-23.21908000
18.50411960,-0.67513120,-29.18142000
18.75411959,-2.73104600,-31.26450000
19.00411957,-4.90233200,-30.71817000
19.25411955,-6.50714200,-28.68697000
19.50411954,-8.75167800,-20.66750000
19.75411952,-12.80063000,-2.78049100
20.00411950,-12.44415000,0.29147850
20.25411948,-10.48224000,0.99499450
20.50411947,-7.73409800,1.95794200
20.75411945,-4.97558300,4.97955100
21.00411943,-3.01428400,12.78995000
21.25411941,-1.38810900,22.24087000
21.50411940,0.30032960,30.86009000
21.75411938,2.54547700,36.17080000
22.00411936,5.42974000,37.47253000
22.25411935,7.85313100,36.24863000
22.50411933,7.23415900,10.39403000
22.75411931,7.26529100,2.79117300
23.00411929,7.25491400,0.78744960
23.25411928,7.19204000,0.08393358
23.50411926,7.10841200,-0.20296670
23.75411924,7.00341800,-0.22890980
24.00411923,6.87767000,-0.35862530
24.25411921,5.00000000,-4.23788300
24.50411919,3.24807700,-10.79996000
24.75411917,1.79038000,-18.81944000
25.00411916,0.30032960,-25.95379000
25.25411914,-1.43022800,-30.56098000
25.50411912,-3.69551900,-30.82194000
25.75411910,-5.41631000,-30.84788000
26.00411909,-7.16762300,-26.86485000
26.25411907,-10.29361000,-13.50720000
26.50411905,-12.50702000,-0.22890980
26.75411904,-11.89843000,0.73403730
27.00411902,-9.34928600,1.30783800
27.25411900,-6.53827400,2.68740100
27.50411898,-4.06299600,7.73867700
27.75411897,-2.31107300,16.79893000
28.00411895,-0.69588570,26.22543000
28.25411893,1.16103000,33.74893000
28.50411891,3.76205600,36.87431000
28.75411890,6.28983000,38.77427000
29.00411888,7.23415900,20.18374000
29.25411886,7.27627800,5.70748400
29.50411885,7.28665600,1.77634000
29.75411883,7.25491400,0.29147850
30.00411881,7.22378200,-0.09766817
30.25411879,7.12916600,-0.17702360
30.50411878,7.00341800,-0.33268220
30.75411876,6.36369200,-1.68630200
31.00411874,4.23391500,-6.50409000
31.25411873,2.61872800,-14.13289000
31.50411871,1.18178500,-21.99518000
31.75411869,-0.38090590,-28.29630000
32.00411867,-2.30069600,-31.26450000
32.25411866,-4.59772900,-30.69222000
32.50411864,-6.12928800,-29.57209000
32.75411862,-8.27981900,-22.67275000
33.00411860,-12.25491000,-5.53961700
33.25411859,-12.42278000,0.13581980
33.50411857,-10.88085000,0.96905140
33.75411855,-8.23770000,1.67256700
34.00411854,-5.41631000,4.09290700
34.25411852,-3.30789900,11.27915000
34.50411850,-1.66096900,20.65377000
34.75411848,0.04883409,29.61024000
35.00411847,2.13649100,35.67635000
35.25411845,4.97863500,37.21310000
35.50411843,7.27627800,37.81132000
35.75411842,7.19204000,11.85295000
36.00411840,7.24453600,3.88536200
36.25411838,7.21279400,0.91716520
36.50411836,7.18166300,0.10987670
36.75411835,7.13954400,-0.12513730
37.00411833,7.02417300,-0.25485290
37.25411831,6.91917900,-0.30673910
37.50411829,5.41936300,-3.48248100
37.75411828,3.51056000,-9.52417300
38.00411826,1.98937900,-17.46582000
38.25411824,0.53107070,-24.88554000
38.50411823,-1.11524800,-30.06654000
38.75411821,-3.29752200,-31.00507000
39.00411819,-5.22707800,-30.79600000
39.25411817,-6.92650500,-27.80186000
39.50411816,-9.59101500,-16.78824000
39.75411814,-12.46490000,0.70809420
40.00411812,-12.19204000,0.47460630
40.25411811,-9.84251000,1.15065300
40.50411809,-7.05225200,2.32267100
40.75411807,-4.41948500,6.51477200
41.00411805,-2.62605300,15.05463000
41.25411804,-1.02124300,24.61085000
41.50411802,0.80393110,32.63033000
41.75411800,3.27981900,36.63930000
42.00411798,5.93334200,38.15010000
42.25411797,7.23415900,22.86656000
42.50411795,7.24453600,7.73867700
42.75411793,7.27627800,2.06324000
43.00411792,7.25491400,0.37083380
43.25411790,7.20241700,0.08393358
43.50411788,7.09742400,-0.25485290
43.75411786,6.99304100,-0.28079600
44.00411785,6.62556500,-1.13997100
44.25411783,4.59101400,-5.48773100
44.50411781,2.87022300,-12.75180000
44.75411780,1.40214900,-20.77127000
45.00411778,-0.10865580,-27.43713000
45.25411776,-1.93383000,-31.10884000
45.50411774,-4.27298300,-30.74411000
45.75411773,-5.83567300,-30.40532000
46.00411771,-7.79697200,-24.41704000
46.25411769,-11.58406000,-8.48187100
46.50411767,-12.51740000,0.05799048
46.75411766,-11.28983000,0.81339280
47.00411764,-8.71993600,1.48944000
47.25411762,-5.87779300,3.49468900
47.50411761,-3.59113600,9.74392600
47.75411759,-1.95458400,19.14296000
48.00411757,-0.25515810,28.25662000
48.25411755,1.73788300,35.02625000
48.50411754,4.51715300,37.08186000
48.75411752,6.77267700,38.77427000
49.00411750,7.25491400,14.76926000
49.25411748,7.27627800,4.61482100
49.50411747,7.28665600,1.02093800
49.75411745,7.26529100,0.29147850
50.00411743,7.19204000,-0.12513730
50.25411742,7.06629200,-0.25485290
