Time,Channel B,Channel C
(ms),(V),(V)

-0.49336169,-8.22732300,-23.27097000
-0.24336171,-12.14992000,-5.93028900
0.00663828,-12.20242000,0.16176290
0.25663826,-10.95471000,0.86527900
0.50663824,-8.34269300,1.59473800
0.75663822,-5.54205800,3.88536200
1.00663821,-3.39152700,10.75876000
1.25663819,-1.78671700,20.15779000
1.50663817,-0.08729093,29.11580000
1.75663816,1.96862400,35.46881000
2.00663814,4.84251000,37.21310000
2.25663812,7.14992000,38.41106000
2.50663810,7.16090800,12.52900000
2.75663809,7.20241700,4.25009200
3.00663807,7.19204000,0.91716520
3.25663805,7.20241700,0.18770600
3.50663804,7.08704700,-0.12513730
3.75663802,6.97167600,-0.28079600
4.00663800,6.84592800,-0.33268220
4.25663798,5.57685300,-3.09333400
4.50663797,3.61494300,-9.10755700
4.75663795,2.09437200,-17.02173000
5.00663793,0.61530950,-24.52081000
5.25663791,-0.99987790,-29.91088000
5.50663790,-3.18154100,-31.16072000
5.75663788,-5.19594700,-31.05695000
6.00663786,-6.88438500,-28.32224000
6.25663785,-9.49639800,-17.51770000
6.50663783,-12.23416000,-0.59363940
6.75663781,-12.04554000,0.42272000
7.00663779,-9.92674800,1.09876700
7.25663778,-7.16762300,2.19295600
7.50663776,-4.52447800,6.20192900
7.75663774,-2.66817200,14.61207000
8.00663773,-1.06275200,24.19424000
8.25663771,0.72030280,32.34343000
8.50663769,3.13270700,36.71865000
8.75663767,5.84971300,38.07227000
9.00663766,7.19204000,23.10005000
9.25663764,7.23415900,8.33689400
9.50663762,7.23415900,2.19295600
9.75663760,7.23415900,0.44866320
10.00663759,7.17128600,0.05799048
10.25663757,7.09742400,-0.22890980
10.50663755,7.00341800,-0.30673910
10.75663754,6.77267700,-0.90495660
11.00663752,4.72713900,-5.12300100
11.25663750,2.95446200,-12.23141000
11.50663748,1.50714200,-20.22494000
11.75663747,0.01709193,-27.04645000
12.00663745,-1.78671700,-30.97760000
12.25663743,-4.13624700,-30.82194000
12.50663742,-5.69954800,-30.79600000
12.75663740,-7.67122500,-25.30216000
13.00663738,-11.33195000,-9.34104500
13.25663736,-12.12917000,0.00610426
13.50663735,-11.40520000,0.76150650
13.75663733,-8.81455200,1.41161000
14.00663731,-6.01391700,3.28714400
14.25663729,-3.66438800,9.24948100
14.50663728,-2.01745800,18.64852000
14.75663726,-0.38090590,27.78659000
15.00663724,1.60114800,34.73935000
15.25663723,4.32853100,37.05592000
15.50663721,6.67806100,39.11305000
15.75663719,7.16090800,15.65438000
16.00663717,7.16090800,4.82236600
16.25663716,7.20241700,1.25595200
16.50663714,7.16090800,0.39677690
16.75663712,7.09742400,-0.12513730
17.00663710,7.00341800,-0.22890980
17.25663709,6.90880200,-0.30673910
17.50663707,5.96508400,-2.49359100
17.75663705,3.87742600,-7.80582300
18.00663704,2.32511300,-15.69405000
18.25663702,0.89854720,-23.37474000
18.50663700,-0.73800510,-29.20736000
18.75663698,-2.79392000,-31.18667000
19.00663697,-4.93346400,-30.82194000
19.25663695,-6.59077000,-28.81669000
19.50663693,-8.91954600,-20.38060000
19.75663692,-12.75852000,-2.20669000
20.00663690,-12.19204000,0.18770600
20.25663688,-10.34611000,0.96905140
20.50663686,-7.66084700,1.90605500
20.75663685,-4.91270900,5.05738000
21.00663683,-2.99291900,12.97155000
21.25663681,-1.37773200,22.50183000
21.50663679,0.38456840,31.06763000
21.75663678,2.60835100,36.24863000
22.00663676,5.49261400,37.62971000
22.25663674,7.69564200,30.96386000
22.50663673,7.20241700,10.18649000
22.75663671,7.20241700,2.73928700
23.00663669,7.20241700,0.76150650
23.25663667,7.18166300,0.03204737
23.50663666,7.06629200,-0.20296670
23.75663664,6.96129900,-0.20296670
24.00663662,6.81418600,-0.38456840
24.25663661,5.07325100,-4.26382600
24.50663659,3.22732300,-10.98156000
24.75663657,1.75863800,-18.94915000
25.00663655,0.26919790,-26.13539000
25.25663654,-1.50347900,-30.64034000
25.50663652,-3.73763900,-30.95165000
25.75663650,-5.49993900,-31.13478000
26.00663648,-7.30435800,-26.89079000
26.25663647,-10.56647000,-12.59614000
26.50663645,-12.26529000,-0.15108050
26.75663643,-11.75131000,0.47460630
27.00663642,-9.25528000,1.28189500
27.25663640,-6.47540000,2.79117300
27.50663638,-4.00012200,7.92027800
27.75663636,-2.30069600,17.00800000
28.00663635,-0.66414360,26.38109000
28.25663633,1.20253900,33.90612000
28.50663631,3.84629500,36.97808000
28.75663630,6.34232700,38.93145000
29.00663628,7.20241700,19.53363000
29.25663626,7.24453600,5.55182500
29.50663624,7.26529100,1.67256700
29.75663623,7.24453600,0.31894760
30.00663621,7.16090800,-0.09766817
30.25663619,7.05591500,-0.15108050
30.50663617,6.96129900,-0.30673910
30.75663616,6.36369200,-1.68630200
31.00663614,4.21316100,-6.58191900
31.25663612,2.58698600,-14.26260000
31.50663611,1.15004300,-22.09895000
31.75663609,-0.37052860,-28.40007000
32.00663607,-2.34281500,-31.26450000
32.25663605,-4.63984900,-30.77005000
32.50663604,-6.19216200,-29.64992000
32.75663602,-8.39518900,-22.46368000
33.00663600,-12.35991000,-4.81168400
33.25663599,-12.17129000,0.10987670
33.50663597,-10.78684000,0.94310830
33.75663595,-8.13270700,1.72445400
34.00663593,-5.35343600,4.25009200
34.25663592,-3.26577900,11.46228000
34.50663590,-1.62922700,20.91320000
34.75663588,0.03845684,29.76590000
35.00663586,2.17800000,35.75418000
35.25663585,5.04150900,37.29093000
35.50663583,7.37028500,37.68160000
35.75663581,7.16090800,11.51416000
36.00663580,7.19204000,3.80753300
36.25663578,7.22378200,0.91716520
36.50663576,7.14992000,0.13581980
36.75663574,7.08704700,-0.09766817
37.00663573,7.00341800,-0.25485290
37.25663571,6.88804800,-0.35862530
37.50663569,5.46148200,-3.48248100
37.75663567,3.47881800,-9.70577400
38.00663566,1.96862400,-17.64742000
38.25663564,0.51031620,-25.09462000
38.50663562,-1.17812200,-30.19778000
38.75663561,-3.40190500,-31.05695000
39.00663559,-5.30094000,-31.10884000
39.25663557,-6.97900100,-27.98346000
39.50663555,-9.85288700,-15.92907000
39.75663554,-12.28666000,-0.43645470
40.00663552,-11.98266000,0.44866320
40.25663550,-9.72713900,1.15065300
40.50663549,-6.93688200,2.34861400
40.75663547,-4.36698800,6.67195700
41.00663545,-2.54181400,15.31559000
41.25663543,-0.97912340,24.79246000
41.50663542,0.84605050,32.78598000
41.75663540,3.31095100,36.69118000
42.00663538,6.01758000,38.35765000
42.25663536,7.18166300,22.24087000
42.50663535,7.19204000,7.47771900
42.75663533,7.20241700,2.08918300
43.00663531,7.19204000,0.37083380
43.25663530,7.14992000,0.05799048
43.50663528,7.06629200,-0.22890980
43.75663526,6.91917900,-0.33268220
44.00663524,6.61518700,-1.19185700
44.25663523,4.50677600,-5.61897200
44.50663521,2.83909200,-12.93493000
44.75663519,1.37040700,-20.92846000
45.00663518,-0.11903310,-27.59278000
45.25663516,-2.00708100,-31.16072000
45.50663514,-4.33585600,-30.84788000
45.75663512,-5.87779300,-30.48315000
46.00663511,-7.93370800,-24.20797000
46.25663509,-11.79343000,-7.57080900
46.50663507,-12.24454000,0.00610426
46.75663505,-11.18545000,0.86527900
47.00663504,-8.60456600,1.51538300
47.25663502,-5.77279900,3.57251900
47.50663500,-3.51727500,9.95147100
47.75663499,-1.90208800,19.37798000
48.00663497,-0.22402640,28.49011000
48.25663495,1.75863800,35.15596000
48.50663493,4.59101400,37.13374000
48.75663492,6.87767000,38.82615000
49.00663490,7.21279400,14.11763000
49.25663488,7.25491400,4.56293500
49.50663487,7.23415900,1.07282400
49.75663485,7.22378200,0.29147850
50.00663483,7.14992000,-0.12513730
50.25663481,7.07666900,-0.25485290
