Time,Channel B,Channel C
(ms),(V),(V)

-0.45684036,-9.94750300,-21.18789000
-0.20684037,-10.52436000,-0.77524110
0.04315961,-10.42974000,0.16176290
0.29315959,-10.28324000,0.29147850
0.54315957,-8.94030000,1.38566700
0.79315956,-6.04566000,3.23373200
1.04315954,-3.68514200,9.45702600
1.29315952,-1.91246500,19.06513000
1.54315951,-0.26553540,28.61983000
1.79315949,1.76901500,35.52069000
2.04315947,4.63252400,37.75943000
2.29315945,7.01379500,39.63344000
2.54315944,7.40202700,13.93603000
2.79315942,7.43315800,4.25009200
3.04315940,7.44353500,0.83933590
3.29315939,7.38066100,0.21364910
3.54315937,7.31778800,-0.15108050
3.79315935,7.19204000,-0.30673910
4.04315933,7.08704700,-0.30673910
4.29315932,5.68184600,-3.17116300
4.54315930,3.60456600,-9.36698800
4.79315928,2.05225300,-17.88243000
5.04315926,0.52069340,-25.82255000
5.29315925,-1.27273800,-31.60328000
5.54315923,-3.66438800,-32.85313000
5.79315921,-5.65742900,-33.60853000
6.04315920,-7.77621700,-29.57209000
6.29315918,-10.54511000,-5.82651700
6.54315916,-10.54511000,-0.12513730
6.79315914,-10.41936000,0.21364910
7.04315913,-10.26187000,0.52649250
7.29315911,-7.72372100,1.88011200
7.54315909,-4.92308600,5.23898200
7.79315908,-2.90929100,13.44158000
8.04315906,-1.30448100,23.17940000
8.29315904,0.51031620,31.84898000
8.54315902,2.90196600,37.02997000
8.79315901,5.74472000,38.56672000
9.04315899,7.39164900,24.74057000
9.29315897,7.43315800,9.04041000
9.54315895,7.46490000,2.06324000
9.79315894,7.46490000,0.42272000
10.04315892,7.42278100,0.05799048
10.29315890,7.35990700,-0.25485290
10.54315889,7.24453600,-0.25485290
10.79315887,6.98205300,-0.90495660
11.04315885,4.79001300,-5.17488700
11.29315883,2.95446200,-12.69991000
11.54315882,1.43328000,-21.29319000
11.79315880,-0.19228420,-28.60914000
12.04315878,-2.16457100,-32.69747000
12.29315876,-4.62947100,-32.82719000
12.54315875,-6.44426800,-32.56623000
12.79315873,-9.17104100,-24.07826000
13.04315871,-10.46148000,-1.58253000
13.29315870,-10.34611000,0.16176290
13.54315868,-10.22036000,0.31894760
13.79315866,-9.39140500,1.20406500
14.04315864,-6.47540000,2.81711600
14.29315863,-3.96838000,8.15529300
14.54315861,-2.22744500,17.47650000
14.79315859,-0.52801850,27.16243000
15.04315858,1.42290300,34.68746000
15.29315856,4.16066400,37.62971000
15.54315854,6.61518700,39.94628000
15.79315852,7.37028500,17.58027000
16.04315851,7.41240400,4.71859400
16.29315849,7.45452300,1.23000800
16.54315847,7.46490000,0.26553540
16.79315845,7.38066100,-0.12513730
17.04315844,7.30741000,-0.20296670
17.29315842,7.19204000,-0.28079600
17.54315840,6.11158600,-2.49359100
17.79315839,3.92992300,-7.96148200
18.04315837,2.33549000,-16.37163000
18.29315835,0.78317670,-24.52081000
18.54315833,-0.91624950,-30.87383000
18.79315832,-3.22366000,-32.98285000
19.04315830,-5.44744200,-33.26975000
19.29315828,-7.43010600,-30.64034000
19.54315827,-11.18545000,-14.67922000
19.79315825,-10.50360000,-0.30673910
20.04315823,-10.37724000,0.26553540
20.29315821,-10.26187000,0.29147850
20.54315820,-8.23770000,1.64662400
20.79315818,-5.36381400,4.27603500
21.04315816,-3.20290600,11.66982000
21.29315814,-1.58771800,21.61671000
21.54315813,0.17458190,30.62508000
21.79315811,2.37760900,36.58741000
22.04315809,5.34611100,38.12416000
22.29315808,7.86350900,37.57783000
22.54315806,7.42278100,10.62904000
22.79315804,7.42278100,2.73928700
23.04315802,7.42278100,0.68215110
23.29315801,7.40202700,-0.01983885
23.54315799,7.29703300,-0.17702360
23.79315797,7.21279400,-0.20296670
24.04315796,7.03455000,-0.35862530
24.29315794,5.12574800,-4.26382600
24.54315792,3.22732300,-11.39818000
24.79315790,1.64326700,-19.88616000
25.04315789,0.08057624,-27.54090000
25.29315787,-1.77634000,-32.35868000
25.54315785,-4.30411400,-32.80125000
25.79315783,-6.06641400,-33.29569000
26.04315782,-8.56305700,-26.44823000
26.29315780,-10.54511000,-2.67671800
26.54315778,-10.51398000,0.10987670
26.79315777,-10.40899000,0.21364910
27.04315775,-9.87425200,0.73403730
27.29315773,-7.02112100,2.40050100
27.54315771,-4.34623300,6.80167200
27.79315770,-2.51068200,15.86192000
28.04315768,-0.85337570,25.47003000
28.29315766,1.02429500,33.56733000
28.54315764,3.62593100,37.42064000
28.79315763,6.31119500,39.47778000
29.04315761,7.42278100,21.56483000
29.29315759,7.45452300,5.94249800
29.54315758,7.46490000,1.62068100
29.79315756,7.47527700,0.21364910
30.04315754,7.40202700,-0.07172506
30.29315752,7.32816500,-0.17702360
30.54315751,7.18166300,-0.33268220
30.79315749,6.51019400,-1.66035900
31.04315747,4.24429200,-6.71163500
31.29315746,2.52411200,-14.86082000
31.54315744,1.08716900,-23.29691000
31.79315742,-0.62263460,-30.04059000
32.04315740,-2.74142300,-32.98285000
32.29315739,-5.14345000,-33.00879000
32.54315737,-7.05225200,-31.23855000
32.79315735,-10.28324000,-19.67861000
33.04315733,-10.44073000,-0.54175310
33.29315732,-10.33573000,0.18770600
33.54315730,-10.22036000,0.26553540
33.79315728,-8.66805000,1.46349600
34.04315727,-5.76242200,3.59846200
34.29315725,-3.49652100,10.26431000
34.54315723,-1.82883600,19.97619000
34.79315721,-0.10865580,29.34929000
35.04315720,2.03149800,35.96325000
35.29315718,4.89500700,37.86320000
35.54315716,7.28665600,39.11305000
35.79315715,7.38066100,12.45117000
36.04315713,7.43315800,3.83347600
36.29315711,7.43315800,0.81339280
36.54315709,7.43315800,0.08393358
36.79315708,7.38066100,-0.15108050
37.04315706,7.28665600,-0.30673910
37.29315704,7.18166300,-0.30673910
37.54315702,5.53473300,-3.43059400
37.79315701,3.48919500,-9.96673200
38.04315699,1.93688200,-18.37688000
38.29315697,0.38456840,-26.31699000
38.54315696,-1.41985100,-31.89018000
38.79315694,-3.86338700,-32.90502000
39.04315692,-5.76242200,-33.63448000
39.29315690,-7.95446200,-28.81669000
39.54315689,-10.55610000,-4.60261200
39.79315687,-10.48224000,-0.04578196
40.04315685,-10.35649000,0.18770600
40.29315684,-10.11537000,0.63026490
40.54315682,-7.51373400,2.03729700
40.79315680,-4.75521900,5.65559800
41.04315678,-2.80429700,14.16951000
41.29315677,-1.15736800,23.93328000
41.54315675,0.67818340,32.47314000
41.79315673,3.14308400,37.18716000
42.04315671,5.94371800,38.82615000
42.29315670,7.38066100,23.88139000
42.54315668,7.42278100,8.10340600
42.79315666,7.44353500,1.90605500
43.04315665,7.44353500,0.29147850
43.29315663,7.34953000,0.05799048
43.54315661,7.29703300,-0.28079600
43.79315659,7.14992000,-0.28079600
44.04315658,6.79343200,-1.21780000
44.29315656,4.55927200,-5.72274400
44.54315654,2.83909200,-13.45532000
44.79315653,1.28677800,-21.96923000
45.04315651,-0.32901970,-29.12953000
45.29315649,-2.38493500,-32.82719000
45.54315647,-4.87059000,-32.77530000
45.79315646,-6.62251200,-32.04584000
46.04315644,-9.54889500,-22.67275000
46.29315642,-10.56647000,-1.08808400
46.54315640,-10.49261000,0.13581980
46.79315639,-10.36687000,0.31894760
47.04315637,-9.19240600,1.30783800
47.29315635,-6.30753300,2.97430100
47.54315634,-3.81150000,8.83286500
47.79315632,-2.08033200,18.23190000
48.04315630,-0.44439020,27.81254000
48.29315628,1.59077000,35.10408000
48.54315627,4.34928600,37.65566000
48.79315625,6.76230000,39.92034000
49.04315623,7.43315800,15.93975000
49.29315621,7.47527700,4.40575000
49.54315620,7.48565500,0.94310830
49.79315618,7.44353500,0.26553540
50.04315616,7.39164900,-0.17702360
50.29315615,7.28665600,-0.28079600
