Time,Channel B,Channel C
(ms),(V),(V)

-0.49156115,-8.65706300,-21.63045000
-0.24156116,-12.50702000,-3.14522000
0.00843882,-11.87767000,0.10987670
0.25843880,-10.61897000,0.94310830
0.50843878,-7.92272000,1.82822600
0.75843877,-5.18556900,4.50952200
1.00843875,-3.16078600,12.06049000
1.25843873,-1.51385700,21.48700000
1.50843872,0.21670130,30.26035000
1.75843870,2.37760900,35.96325000
2.00843868,5.20937600,37.39470000
2.25843866,7.60102600,36.95214000
2.50843865,7.12916600,10.91594000
2.75843863,7.16090800,3.44280300
3.00843861,7.10841200,0.96905140
3.25843859,7.11878900,0.10987670
3.50843858,7.04553700,-0.12513730
3.75843856,6.96129900,-0.22890980
4.00843854,6.84592800,-0.33268220
4.25843853,5.24111800,-3.82126700
4.50843851,3.36344800,-10.25211000
4.75843849,1.88438500,-18.24564000
5.00843847,0.37419120,-25.51123000
5.25843846,-1.31485800,-30.37938000
5.50843844,-3.55939400,-31.03101000
5.75843842,-5.39494600,-31.21261000
6.00843841,-7.13649100,-27.69808000
6.25843839,-10.22036000,-14.34043000
6.50843837,-12.01380000,-0.25485290
6.75843835,-11.79343000,0.42272000
7.00843834,-9.54889500,1.20406500
7.25843832,-6.74826000,2.50579900
7.50843830,-4.20949800,7.14045900
7.75843828,-2.45818600,15.91381000
8.00843827,-0.87413010,25.39220000
8.25843825,0.99316320,33.15071000
8.50843823,3.48919500,36.79648000
8.75843822,6.15370500,38.64455000
9.00843820,7.14992000,21.27793000
9.25843818,7.17128600,6.77572900
9.50843816,7.16090800,2.06324000
9.75843815,7.14992000,0.34489070
10.00843813,7.10841200,0.03204737
10.25843811,7.03455000,-0.17702360
10.50843809,6.87767000,-0.33268220
10.75843808,6.44732000,-1.32157200
11.00843806,4.41215900,-6.03558800
11.25843804,2.73409800,-13.53315000
11.50843803,1.27640100,-21.50073000
11.75843801,-0.26553540,-27.98346000
12.00843799,-2.16457100,-31.21261000
12.25843797,-4.42986200,-30.79600000
12.50843796,-6.01391700,-30.14437000
12.75843794,-8.17482600,-23.48004000
13.00843792,-12.13954000,-6.00811900
13.25843791,-11.99304000,0.13581980
13.50843789,-10.99621000,0.91716520
13.75843787,-8.40556700,1.56726900
14.00843785,-5.59455500,3.75564600
14.25843784,-3.44402400,10.49933000
14.50843782,-1.79709400,19.92431000
14.75843780,-0.10865580,28.95861000
15.00843778,1.94725900,35.38945000
15.25843777,4.74789400,37.10780000
15.50843775,7.04553700,38.41106000
15.75843773,7.18166300,12.91967000
16.00843772,7.18166300,4.35386400
16.25843770,7.20241700,0.96905140
16.50843768,7.18166300,0.26553540
16.75843766,7.10841200,-0.12513730
17.00843765,7.03455000,-0.30673910
17.25843763,6.88804800,-0.28079600
17.50843761,5.65010400,-3.01397900
17.75843760,3.65706300,-8.84660000
18.00843758,2.13649100,-16.78824000
18.25843756,0.68856060,-24.33921000
18.50843754,-0.92662680,-29.83305000
18.75843753,-3.11866700,-31.18667000
19.00843751,-5.14345000,-31.08290000
19.25843749,-6.84287600,-28.50537000
19.50843747,-9.43352400,-17.93432000
19.75843746,-11.94054000,-0.67146870
20.00843744,-11.86729000,0.21364910
20.25843742,-9.93712600,1.09876700
20.50843741,-7.20974200,2.16701200
20.75843739,-4.56659700,5.99438400
21.00843737,-2.73104600,14.32670000
21.25843735,-1.12623600,23.85545000
21.50843734,0.64705160,32.10994000
21.75843732,3.04907800,36.53553000
22.00843730,5.84971300,38.02039000
22.25843729,7.08704700,23.04816000
22.50843727,7.12916600,8.77945300
22.75843725,7.14992000,2.34861400
23.00843723,7.12916600,0.57837870
23.25843722,7.07666900,0.13581980
23.50843720,7.02417300,-0.20296670
23.75843718,6.90880200,-0.17702360
24.00843716,6.72018100,-0.77524110
24.25843715,4.74789400,-5.07111500
24.50843713,2.97521700,-12.20547000
24.75843711,1.51751900,-20.25089000
25.00843710,0.00671469,-27.07240000
25.25843708,-1.81845900,-30.97760000
25.50843706,-4.13624700,-30.82194000
25.75843704,-5.72030300,-30.84788000
26.00843703,-7.68160200,-25.32810000
26.25843701,-11.42657000,-9.21132900
26.50843699,-12.02417000,0.03204737
26.75843698,-11.45770000,0.65620800
27.00843696,-8.84629400,1.41161000
27.25843694,-6.02429500,3.23373200
27.50843692,-3.71688400,9.01446700
27.75843691,-2.08033200,18.25784000
28.00843689,-0.39189350,27.55311000
28.25843687,1.53827400,34.58216000
28.50843685,4.24429200,37.00403000
28.75843684,6.66768400,39.11305000
29.00843682,7.16090800,16.30448000
29.25843680,7.17128600,4.84830900
29.50843679,7.19204000,1.35972400
29.75843677,7.14992000,0.37083380
30.00843675,7.10841200,-0.09766817
30.25843673,6.96129900,-0.22890980
30.50843672,6.84592800,-0.28079600
30.75843670,5.99621500,-2.41576100
31.00843668,3.92992300,-7.67458200
31.25843666,2.35624500,-15.59028000
31.50843665,0.91930160,-23.27097000
31.75843663,-0.67513120,-29.18142000
32.00843661,-2.75180100,-31.26450000
32.25843660,-4.93346400,-30.87383000
32.50843658,-6.54865100,-28.92199000
32.75843656,-8.90916800,-20.48590000
33.00843654,-11.98266000,-0.51428400
33.25843653,-11.98266000,0.18770600
33.50843651,-10.37724000,1.02093800
33.75843649,-7.68160200,1.93199800
34.00843648,-4.97558300,4.97955100
34.25843646,-3.01428400,12.84184000
34.50843644,-1.36735400,22.39806000
34.75843642,0.33207180,30.96386000
35.00843641,2.59797300,36.24863000
35.25843639,5.44011700,37.52442000
35.50843637,7.89464000,35.91137000
35.75843635,7.19204000,10.34214000
36.00843634,7.20241700,2.84305900
36.25843632,7.19204000,0.86527900
36.50843630,7.20241700,0.08393358
36.75843629,7.09742400,-0.20296670
37.00843627,6.96129900,-0.22890980
37.25843625,6.85630600,-0.38456840
37.50843623,5.09400600,-4.13411000
37.75843622,3.24807700,-10.77402000
38.00843620,1.76901500,-18.76755000
38.25843618,0.27957510,-25.95379000
38.50843617,-1.40886300,-30.61439000
38.75843615,-3.67476500,-31.03101000
39.00843613,-5.45781900,-31.21261000
39.25843611,-7.24148500,-27.12428000
39.50843610,-10.54511000,-12.88304000
39.75843608,-11.91918000,-0.15108050
40.00843606,-11.63594000,0.50054940
40.25843604,-9.31815400,1.28189500
40.50843603,-6.50714200,2.71334400
40.75843601,-4.05261900,7.76462000
41.00843599,-2.32145000,16.74704000
41.25843598,-0.71664020,26.19949000
41.50843596,1.19216200,33.72299000
41.75843594,3.78281000,36.87431000
42.00843592,6.30020800,38.90551000
42.25843591,7.06629200,19.63741000
42.50843589,7.12916600,5.91655400
42.75843587,7.14992000,1.93199800
43.00843586,7.12916600,0.34489070
43.25843584,7.07666900,-0.04578196
43.50843582,6.98205300,-0.15108050
43.75843580,6.89842500,-0.33268220
44.00843579,6.35270400,-1.63441600
44.25843577,4.24429200,-6.53003300
44.50843575,2.61872800,-14.23666000
44.75843573,1.13966500,-22.07301000
45.00843572,-0.38090590,-28.40007000
45.25843570,-2.33243800,-31.26450000
45.50843568,-4.61909400,-30.79600000
45.75843567,-6.19216200,-29.70181000
46.00843565,-8.44768600,-22.56898000
46.25843563,-12.40203000,-4.39506800
46.50843561,-12.01380000,0.13581980
46.75843560,-10.83934000,0.99499450
47.00843558,-8.18520400,1.69851100
47.25843556,-5.41631000,4.11885000
47.50843554,-3.28653400,11.25320000
47.75843553,-1.66096900,20.65377000
48.00843551,0.01709193,29.55836000
48.25843549,2.16762300,35.70229000
48.50843548,5.01037700,37.26498000
48.75843546,7.31778800,37.91509000
49.00843544,7.18166300,11.74918000
49.25843542,7.16090800,3.96319100
49.50843541,7.16090800,0.96905140
49.75843539,7.13954400,0.13581980
50.00843537,7.05591500,-0.09766817
50.25843536,6.90880200,-0.30673910
