Time,Channel B,Channel C
(ms),(V),(V)

-0.49824363,-7.84946900,-24.67800000
-0.24824365,-11.60481000,-8.19649600
0.00175633,-12.60103000,0.05799048
0.25175631,-11.26908000,0.81339280
0.50175630,-8.70955900,1.46349600
0.75175628,-5.91930200,3.46874600
1.00175626,-3.60151400,9.66609700
1.25175625,-1.96496200,19.03919000
1.50175623,-0.29727750,28.25662000
1.75175621,1.73788300,35.07813000
2.00175619,4.51715300,37.21310000
2.25175618,6.83555100,39.06116000
2.50175616,7.26529100,14.68990000
2.75175614,7.31778800,4.56293500
3.00175613,7.28665600,1.02093800
3.25175611,7.25491400,0.31894760
3.50175609,7.19204000,-0.15108050
3.75175607,7.08704700,-0.28079600
4.00175606,6.98205300,-0.30673910
4.25175604,5.89122200,-2.67671800
4.50175602,3.83530700,-8.14308400
4.75175600,2.28299400,-16.00690000
5.00175599,0.82529600,-23.60975000
5.25175597,-0.81125620,-29.41643000
5.50175595,-2.86717100,-31.26450000
5.75175594,-4.97558300,-30.92571000
6.00175592,-6.66402100,-28.73886000
6.25175590,-9.04529400,-19.75644000
6.50175588,-12.90563000,-1.97320200
6.75175587,-12.38127000,0.37083380
7.00175585,-10.26187000,1.04688100
7.25175583,-7.53510000,2.03729700
7.50175582,-4.82847000,5.34275400
7.75175580,-2.88792600,13.49347000
8.00175578,-1.27273800,22.97033000
8.25175576,0.46819680,31.51019000
8.50175575,2.73409800,36.45770000
8.75175573,5.59760700,37.81132000
9.00175571,7.23415900,26.01636000
9.25175569,7.20241700,9.74392600
9.50175568,7.25491400,2.45391300
9.75175566,7.24453600,0.70809420
10.00175564,7.18166300,0.08393358
10.25175563,7.09742400,-0.20296670
10.50175561,7.01379500,-0.20296670
10.75175559,6.91917900,-0.41051150
11.00175557,4.94750300,-4.57666900
11.25175556,3.14308400,-11.34629000
11.50175554,1.67500900,-19.41765000
11.75175552,0.14345010,-26.47418000
12.00175551,-1.59809500,-30.84788000
12.25175549,-3.87437400,-30.95165000
12.50175547,-5.56281300,-31.08290000
12.75175545,-7.39836400,-26.42229000
13.00175544,-10.86009000,-11.50195000
13.25175542,-12.65352000,-0.04578196
13.50175540,-11.66768000,0.70809420
13.75175538,-9.16066400,1.33378100
14.00175537,-6.34965200,2.87052900
14.25175535,-3.90550600,8.25906500
14.50175533,-2.21706700,17.42461000
14.75175532,-0.57013800,26.77176000
15.00175530,1.29715500,34.16555000
15.25175528,3.97204200,36.97808000
15.50175526,6.43694300,39.16494000
15.75175525,7.24453600,18.59663000
16.00175523,7.27627800,5.21303800
16.25175521,7.25491400,1.48944000
16.50175519,7.25491400,0.31894760
16.75175518,7.17128600,-0.12513730
17.00175516,7.08704700,-0.22890980
17.25175514,6.96129900,-0.35862530
17.50175513,6.24832100,-1.94725900
17.75175511,4.10816800,-6.92070500
18.00175509,2.54547700,-14.73111000
18.25175507,1.08716900,-22.51557000
18.50175506,-0.50726410,-28.71292000
18.75175504,-2.47894000,-31.31638000
19.00175502,-4.73446500,-30.79600000
19.25175501,-6.31791000,-29.33860000
19.50175499,-8.53131500,-21.86546000
19.75175497,-12.54853000,-4.13411000
20.00175495,-12.55952000,0.29147850
20.25175494,-10.66048000,0.94310830
20.50175492,-7.99658200,1.77634000
20.75175490,-5.20632400,4.45763600
21.00175488,-3.14003200,11.95672000
21.25175487,-1.53522200,21.43359000
21.50175485,0.17458190,30.28629000
21.75175483,2.32511300,36.04108000
22.00175482,5.16786700,37.49847000
22.25175480,7.62239000,37.23904000
22.50175478,7.28665600,11.01972000
22.75175476,7.28665600,3.20778900
23.00175475,7.30741000,0.81339280
23.25175473,7.25491400,0.03204737
23.50175471,7.19204000,-0.15108050
23.75175470,7.07666900,-0.22890980
24.00175468,6.94054500,-0.35862530
24.25175466,5.32474700,-3.69155200
24.50175464,3.41594400,-10.01862000
24.75175463,1.91612700,-17.96026000
25.00175461,0.45781960,-25.32810000
25.25175459,-1.24160700,-30.32749000
25.50175457,-3.45440100,-31.03101000
25.75175456,-5.34244900,-31.10884000
26.00175454,-7.03149800,-27.77591000
26.25175452,-9.94750300,-15.32932000
26.50175451,-12.63277000,-0.46239780
26.75175449,-12.06629000,0.63026490
27.00175447,-9.60139200,1.23000800
27.25175445,-6.79038000,2.50579900
27.50175444,-4.26199500,7.03516100
27.75175442,-2.47894000,15.78409000
28.00175440,-0.86375290,25.34031000
28.25175439,0.96142110,33.17666000
28.50175437,3.45806400,36.84837000
28.75175435,6.12196300,38.61861000
29.00175433,7.21279400,21.53888000
29.25175432,7.22378200,6.77572900
29.50175430,7.23415900,2.03729700
29.75175428,7.19204000,0.34489070
30.00175426,7.17128600,0.05799048
30.25175425,7.10841200,-0.15108050
30.50175423,6.98205300,-0.33268220
30.75175421,6.55231300,-1.37345900
31.00175420,4.40178300,-5.93028900
31.25175418,2.75485300,-13.37749000
31.50175416,1.27640100,-21.29319000
31.75175414,-0.22402640,-27.93157000
32.00175413,-2.10169700,-31.26450000
32.25175411,-4.41948500,-30.79600000
32.50175409,-5.96142100,-30.14437000
32.75175407,-8.05945500,-23.71353000
33.00175406,-11.94054000,-6.76352100
33.25175404,-12.67489000,0.10987670
33.50175402,-11.09083000,0.86527900
33.75175401,-8.48919500,1.56726900
34.00175399,-5.66780600,3.70376000
34.25175397,-3.46477800,10.34214000
34.50175395,-1.79709400,19.74118000
34.75175394,-0.17152970,28.82890000
35.00175392,1.89476300,35.33757000
35.25175390,4.66426600,37.21310000
35.50175389,7.02417300,38.61861000
35.75175387,7.25491400,13.33628000
36.00175385,7.28665600,4.32792100
36.25175383,7.27627800,0.99499450
36.50175382,7.23415900,0.18770600
36.75175380,7.14992000,-0.15108050
37.00175378,7.06629200,-0.33268220
37.25175376,6.92955700,-0.30673910
37.50175375,5.71297700,-2.93614900
37.75175373,3.68880500,-8.74282700
38.00175371,2.13649100,-16.68447000
38.25175370,0.67818340,-24.23544000
38.50175368,-0.93700400,-29.70181000
38.75175366,-3.07715800,-31.23855000
39.00175364,-5.12208500,-30.97760000
39.25175363,-6.81113400,-28.42602000
39.50175361,-9.30777600,-18.32499000
39.75175359,-12.99963000,-1.45281400
40.00175358,-12.32878000,0.42272000
40.25175356,-10.03113000,1.07282400
40.50175354,-7.27261600,2.14106900
40.75175352,-4.58735200,5.86466800
41.00175351,-2.75180100,14.19546000
41.25175349,-1.13661300,23.80356000
41.50175347,0.61530950,32.05805000
41.75175345,3.01733600,36.63930000
42.00175344,5.78622900,38.07227000
42.25175342,7.22378200,24.09047000
42.50175340,7.29703300,8.77945300
42.75175339,7.30741000,2.19295600
43.00175337,7.28665600,0.47460630
43.25175335,7.22378200,0.05799048
43.50175333,7.17128600,-0.25485290
43.75175332,7.06629200,-0.25485290
44.00175330,6.81418600,-0.85307040
44.25175328,4.79001300,-4.94139900
44.50175327,3.03809000,-11.89263000
44.75175325,1.54865100,-19.96399000
45.00175323,0.04883409,-26.83891000
45.25175321,-1.73422100,-30.97760000
45.50175320,-4.02087600,-30.87383000
45.75175318,-5.63606400,-30.89977000
46.00175316,-7.56623100,-25.69283000
46.25175314,-11.08045000,-10.27958000
46.50175313,-12.58027000,-0.04578196
46.75175311,-11.45770000,0.78744960
47.00175309,-8.95067800,1.41161000
47.25175308,-6.10853400,3.18184600
47.50175306,-3.79013500,8.88475100
47.75175304,-2.09070900,18.20596000
48.00175302,-0.45476740,27.44934000
48.25175301,1.48577700,34.55622000
48.50175299,4.20278400,37.02997000
48.75175297,6.57306800,39.13899000
49.00175296,7.22378200,16.72110000
49.25175294,7.21279400,4.87425200
49.50175292,7.22378200,1.30783800
49.75175290,7.23415900,0.37083380
50.00175289,7.13954400,-0.09766817
50.25175287,7.05591500,-0.25485290
