Time,Channel B,Channel C
(ms),(V),(V)

-0.31283419,-11.31120000,-10.66872000
-0.06283421,-11.38445000,-0.07172506
0.18716578,-11.27945000,0.21364910
0.43716576,-9.33890800,1.23000800
0.68716574,-6.58039300,2.68740100
0.93716572,-4.08375000,7.63490400
1.18716571,-2.35319300,16.56544000
1.43716569,-0.73800510,25.86070000
1.68716567,1.12928800,33.46356000
1.93716565,3.71993600,36.66524000
2.18716564,6.26907600,38.64455000
2.43716562,7.22378200,20.49658000
2.68716560,7.24453600,6.02032700
2.93716559,7.23415900,1.82822600
3.18716557,7.19204000,0.26553540
3.43716555,7.13954400,-0.07172506
3.68716553,7.04553700,-0.17702360
3.93716552,6.94054500,-0.35862530
4.18716550,6.24832100,-1.79007400
4.43716548,4.16066400,-6.92070500
4.68716547,2.55585400,-14.65328000
4.93716545,1.10853400,-22.51557000
5.18716543,-0.49627640,-28.84263000
5.43716541,-2.50030500,-31.47357000
5.68716540,-4.76559600,-31.10884000
5.93716538,-6.41252600,-29.78116000
6.18716536,-8.78342100,-21.83952000
6.43716534,-11.42657000,-1.55658700
6.68716533,-11.35331000,0.10987670
6.93716531,-10.87047000,0.57837870
7.18716529,-8.21694600,1.69851100
7.43716528,-5.42668800,4.06696400
7.68716526,-3.29752200,11.22726000
7.93716524,-1.65059200,20.57441000
8.18716522,0.02807960,29.45306000
8.43716521,2.11512600,35.44134000
8.68716519,4.93712600,37.00403000
8.93716517,7.25491400,37.88914000
9.18716516,7.25491400,12.00861000
9.43716514,7.24453600,3.91130500
9.68716512,7.26529100,0.89122210
9.93716510,7.20241700,0.08393358
10.18716509,7.17128600,-0.17702360
10.43716507,7.05591500,-0.28079600
10.68716505,6.92955700,-0.28079600
10.93716503,5.37724300,-3.61372200
11.18716502,3.51056000,-9.91484500
11.43716500,1.95763600,-17.90837000
11.68716498,0.45781960,-25.30216000
11.93716497,-1.22024200,-30.48315000
12.18716495,-3.46477800,-31.34233000
12.43716493,-5.37419100,-31.52545000
12.68716491,-7.16762300,-28.24441000
12.93716490,-10.37724000,-14.65328000
13.18716488,-11.31120000,-0.25485290
13.43716486,-11.21658000,0.18770600
13.68716485,-9.77963600,1.15065300
13.93716483,-7.04187500,2.29672800
14.18716481,-4.44085000,6.54071500
14.43716479,-2.59431100,15.00275000
14.68716478,-0.98950060,24.50708000
14.93716476,0.79355390,32.47314000
15.18716474,3.23770000,36.48364000
15.43716472,5.94371800,37.99445000
15.68716471,7.16090800,22.55372000
15.93716469,7.18166300,7.92027800
16.18716467,7.20241700,2.14106900
16.43716466,7.19204000,0.39677690
16.68716464,7.12916600,0.10987670
16.93716462,7.10841200,-0.22890980
17.18716460,6.96129900,-0.22890980
17.43716459,6.58344500,-1.29562900
17.68716457,4.49639800,-5.85246000
17.93716455,2.79697200,-13.22030000
18.18716453,1.32828700,-21.31913000
18.43716452,-0.16115250,-27.90563000
18.68716450,-2.11207400,-31.36827000
18.93716448,-4.45122700,-31.08290000
19.18716447,-6.03467200,-30.66628000
19.43716445,-8.25845400,-23.94854000
19.68716443,-11.56269000,-0.15108050
19.93716441,-11.38445000,0.10987670
20.18716440,-11.12196000,0.55243560
20.43716438,-8.68880500,1.48944000
20.68716436,-5.88817000,3.39091700
20.93716435,-3.59113600,9.64015400
21.18716433,-1.96496200,18.88200000
21.43716431,-0.27652300,28.04755000
21.68716429,1.66402100,34.76529000
21.93716428,4.46465600,36.90026000
22.18716426,6.70980400,38.80021000
22.43716424,7.20241700,15.08058000
22.68716422,7.19204000,4.69265000
22.93716421,7.23415900,1.12471000
23.18716419,7.18166300,0.37083380
23.43716417,7.11878900,-0.12513730
23.68716416,7.01379500,-0.28079600
23.93716414,6.88804800,-0.28079600
24.18716412,5.74472000,-2.93614900
24.43716410,3.71993600,-8.66499800
24.68716409,2.22012000,-16.65853000
24.93716407,0.70992550,-24.23544000
25.18716405,-0.91624950,-29.91088000
25.43716404,-3.10828900,-31.44762000
25.68716402,-5.16420500,-31.36827000
25.93716400,-6.90575000,-28.86857000
26.18716398,-9.64351100,-18.03809000
26.43716397,-11.43694000,-0.59363940
26.68716395,-11.36369000,0.26553540
26.93716393,-10.19900000,0.99499450
27.18716391,-7.49298000,1.98388500
27.43716390,-4.81809300,5.39616600
27.68716388,-2.88792600,13.44158000
27.93716386,-1.25198400,23.02222000
28.18716385,0.46819680,31.35453000
28.43716383,2.75485300,36.14485000
28.68716381,5.58723000,37.49847000
28.93716379,7.02417300,22.81467000
29.18716378,7.20241700,9.89958500
29.43716376,7.26529100,2.53174200
29.68716374,7.26529100,0.68215110
29.93716373,7.22378200,0.08393358
30.18716371,7.09742400,-0.20296670
30.43716369,7.03455000,-0.22890980
30.68716367,6.87767000,-0.67146870
30.93716366,4.84251000,-4.81168400
31.18716364,3.06983300,-11.78885000
31.43716362,1.59077000,-19.80833000
31.68716360,0.10133070,-26.86485000
31.93716359,-1.70308900,-31.08290000
32.18716357,-4.07337300,-31.16072000
32.43716355,-5.68856000,-31.34233000
32.68716354,-7.70296700,-25.97973000
32.93716352,-11.51019000,-9.26321600
33.18716350,-11.32157000,0.00610426
33.43716348,-11.19582000,0.21364910
33.68716347,-9.09779000,1.35972400
33.93716345,-6.29715500,2.92241500
34.18716343,-3.92687100,8.28500700
34.43716341,-2.23782200,17.45056000
34.68716340,-0.59089240,26.69393000
34.93716338,1.31791000,33.95800000
35.18716336,3.96166500,36.71865000
35.43716335,6.44732000,38.90551000
35.68716333,7.13954400,18.57069000
35.93716331,7.18166300,5.31681100
36.18716329,7.19204000,1.62068100
36.43716328,7.20241700,0.37083380
36.68716326,7.13954400,-0.09766817
36.93716324,7.06629200,-0.17702360
37.18716323,6.95092200,-0.28079600
37.43716321,6.12196300,-2.23415900
37.68716319,3.99279700,-7.46703700
37.93716317,2.45086100,-15.30338000
38.18716316,0.95104380,-23.06342000
38.43716314,-0.61225740,-29.10359000
38.68716312,-2.69930400,-31.42016000
38.93716310,-4.89134400,-31.13478000
39.18716309,-6.58039300,-29.41643000
39.43716307,-8.97204200,-20.90252000
39.68716305,-11.45770000,-1.21780000
39.93716304,-11.38445000,0.16176290
40.18716302,-10.68185000,0.91716520
40.43716300,-7.97521600,1.82822600
40.68716298,-5.19594700,4.40575000
40.93716297,-3.18154100,11.90483000
41.18716295,-1.53522200,21.25198000
41.43716293,0.14345010,30.02686000
41.68716292,2.29337100,35.72824000
41.93716290,5.13612500,37.21310000
42.18716288,7.48565500,37.18716000
42.43716286,7.21279400,11.17537000
42.68716285,7.19204000,3.46874600
42.93716283,7.21279400,0.86527900
43.18716281,7.16090800,0.08393358
43.43716279,7.08704700,-0.17702360
43.68716278,6.97167600,-0.25485290
43.93716276,6.84592800,-0.35862530
44.18716274,5.17824400,-3.95250900
44.43716273,3.31095100,-10.59089000
44.68716271,1.82151100,-18.61036000
44.93716269,0.34244900,-25.87444000
45.18716267,-1.35697700,-30.71817000
45.43716266,-3.68514200,-31.21261000
45.68716264,-5.47918400,-31.49951000
45.93716262,-7.29337100,-27.59278000
46.18716261,-10.74472000,-12.83116000
46.43716259,-11.44732000,-0.20296670
46.68716257,-11.35331000,0.23959220
46.93716255,-9.53851800,1.23000800
47.18716254,-6.79038000,2.47985600
47.43716252,-4.25161700,7.06110300
47.68716250,-2.50030500,15.81003000
47.93716248,-0.88450740,25.26096000
48.18716247,0.96142110,32.99506000
48.43716245,3.46844100,36.53553000
48.68716243,6.10120900,38.27982000
48.93716242,7.21279400,21.77237000
49.18716240,7.24453600,6.87950200
49.43716238,7.27627800,1.98388500
49.68716236,7.24453600,0.31894760
49.93716235,7.18166300,0.00610426
50.18716233,7.09742400,-0.22890980
50.43716231,6.95092200,-0.30673910
