Time,Channel B,Channel C
(ms),(V),(V)

-0.49999997,-6.63868900,-1.96465600
-0.24999998,-6.84135000,-1.21688400
0.00000000,-6.91948500,-0.58845070
0.24999998,-6.92467300,-0.13154680
0.49999997,-6.85691600,0.18526430
0.74999995,-6.74276600,0.38243190
0.99999993,-6.52972700,0.56433890
1.24999991,-6.27518000,0.69405440
1.49999990,-6.02551600,0.91716520
1.74999988,-5.76059100,1.12501500
1.99999986,-5.43340300,1.41588300
2.24999984,-5.11109700,1.75833200
2.49999983,-4.81504100,2.15816100
2.74999981,-4.47717000,2.67244500
2.99999979,-4.10816800,3.21236700
3.24999978,-3.81211100,3.82004600
3.49999976,-3.46905100,4.49487300
3.74999974,-3.11073100,5.15443800
3.99999972,-2.72097400,5.81369800
4.24999971,-2.35716000,6.51477200
4.49999969,-1.93627100,7.09650800
4.74999967,-1.53613700,7.64680700
4.99999966,-1.05298500,8.08295600
5.24999964,-0.59577580,8.33231500
5.49999962,-0.08149188,8.42571100
5.74999960,0.49017210,8.22304900
5.99999959,1.10334500,7.82840900
6.24999957,1.72689500,7.39744900
6.49999955,2.24636800,7.22103500
6.74999953,2.74539100,7.14320600
6.99999952,3.16628000,7.08063700
7.24999950,3.55603700,7.03393900
7.49999948,3.92992300,6.93535600
7.74999947,4.29373700,6.73818800
7.99999945,4.68349400,6.47326300
8.24999943,5.01068300,6.04749100
8.49999941,5.35374200,5.50756900
8.74999940,5.68642400,4.84281500
8.99999938,6.00323500,4.03278000
9.24999936,6.32554000,3.13453800
9.49999935,6.58527700,2.24667300
9.74999933,6.80869200,1.46777000
9.99999931,6.93840800,0.77707240
10.24999929,6.99059900,0.27347090
10.49999928,6.94390200,-0.09003785
10.74999926,6.80350400,-0.33939690
10.99999924,6.62678500,-0.51062140
11.24999922,6.40855800,-0.66109140
11.49999921,6.12806700,-0.81705530
11.74999919,5.86283700,-1.02460000
11.99999917,5.54602600,-1.28952500
12.24999916,5.24478100,-1.61671300
12.49999914,4.91728700,-2.02173100
12.74999912,4.56385000,-2.50457800
12.99999910,4.23666200,-3.07044300
13.24999909,3.92473400,-3.64180200
13.49999907,3.57160300,-4.29587400
13.74999905,3.19741200,-4.91911800
13.99999904,2.82840900,-5.62019300
14.24999902,2.45940700,-6.24832100
14.49999900,2.06995500,-6.89751000
14.74999898,1.68019800,-7.44262000
14.99999897,1.20742300,-7.89433500
15.24999895,0.74990840,-8.24746700
15.49999893,0.25637890,-8.37199300
15.74999891,-0.30490780,-8.28378700
15.99999890,-0.89183250,-7.95141000
16.24999888,-1.49462800,-7.47894000
16.49999886,-2.06110400,-7.20882700
16.74999885,-2.52869000,-7.08948900
16.99999883,-3.00146500,-7.04797900
17.24999881,-3.39122200,-6.99609300
17.49999879,-3.78616800,-6.91307500
17.74999878,-4.13960500,-6.77267700
17.99999876,-4.49792400,-6.53918900
18.24999874,-4.86692700,-6.18086900
18.49999873,-5.23074100,-5.72396500
18.74999871,-5.54236400,-5.07996600
18.99999869,-5.86985700,-4.34257100
19.24999867,-6.17110300,-3.50140400
19.49999866,-6.45159300,-2.58759600
19.74999864,-6.70644600,-1.78274900
19.99999862,-6.86729300,-1.05573200
20.24999860,-6.92986200,-0.46392380
20.49999859,-6.93505000,-0.03296301
20.74999857,-6.82578400,0.24752780
20.99999855,-6.69606900,0.43950680
21.24999854,-6.49340700,0.59547060
21.49999852,-6.23336600,0.75631790
21.74999850,-5.96325200,0.94860210
21.99999848,-5.68795000,1.18209000
22.24999847,-5.37602200,1.46777000
22.49999845,-5.05921100,1.83646700
22.74999843,-4.73171800,2.29855900
22.99999841,-4.37858600,2.80216100
23.24999840,-4.07184700,3.38878000
23.49999838,-3.70833800,3.96532800
23.74999836,-3.36527900,4.64045900
23.99999835,-3.01703100,5.30490800
24.24999833,-2.65352200,5.93334200
24.49999831,-2.25338800,6.61854500
24.74999829,-1.85325400,7.23141200
24.99999828,-1.42198800,7.75576800
25.24999826,-0.96996700,8.16597500
25.49999824,-0.47613230,8.39457900
25.74999823,0.05890612,8.39976800
25.99999821,0.66689050,8.16597500
26.24999819,1.25930900,7.70388200
26.49999817,1.87767100,7.36112800
26.74999816,2.38157700,7.18471500
26.99999814,2.83359800,7.12245100
27.24999812,3.25967500,7.07544900
27.49999810,3.65981000,7.00280800
27.74999809,4.04956700,6.89384700
27.99999807,4.39262600,6.70186800
28.24999805,4.74056900,6.37986800
28.49999804,5.09919400,5.95409600
28.74999802,5.42638300,5.38792600
28.99999800,5.77463100,4.63008200
29.24999798,6.09144200,3.83561200
29.49999797,6.38261500,2.94744200
29.74999795,6.64235100,2.06995500
29.99999793,6.82944700,1.28586300
30.24999792,6.94909000,0.65254550
30.49999790,6.96465600,0.19045290
30.74999788,6.91765400,-0.17305580
30.99999786,6.75680600,-0.37052860
31.24999785,6.55933300,-0.54694180
31.49999783,6.34110600,-0.71847150
31.74999781,6.07068700,-0.87413010
31.99999779,5.80576200,-1.08167500
32.24999778,5.49414000,-1.34660000
32.49999776,5.18740100,-1.72048600
32.74999774,4.85502400,-2.12550400
32.99999773,4.47564400,-2.61872800
33.24999771,4.16371600,-3.20046400
33.49999769,3.82615100,-3.80264900
33.74999767,3.48309100,-4.43627200
33.99999766,3.14033700,-5.08515500
34.24999764,2.76095700,-5.75509700
34.49999762,2.37120000,-6.42504000
34.74999761,1.98144300,-7.03760200
34.99999759,1.57093100,-7.54120300
35.24999757,1.12410000,-8.01367400
35.49999755,0.62538150,-8.31491900
35.74999754,0.13704060,-8.38755900
35.99999752,-0.45537780,-8.22671200
36.24999750,-1.03741900,-7.82688300
36.49999748,-1.65578100,-7.40111100
36.74999747,-2.18563100,-7.17769500
36.99999745,-2.65871100,-7.04797900
37.24999743,-3.09516500,-7.03241300
37.49999742,-3.48461700,-6.99609300
37.74999740,-3.89512900,-6.87675500
37.99999738,-4.25375400,-6.72598000
38.24999736,-4.58643600,-6.45098300
38.49999735,-4.93956800,-6.07709700
38.74999733,-5.30338200,-5.56800100
38.99999731,-5.64125300,-4.89317500
39.24999729,-5.94249800,-4.11946000
39.49999728,-6.28036900,-3.28867100
39.74999726,-6.52972700,-2.43193700
39.99999724,-6.72720100,-1.61671300
40.24999723,-6.88804800,-0.87931880
40.49999721,-6.93505000,-0.34458550
40.74999719,-6.90910800,0.06043218
40.99999717,-6.78427600,0.32016850
41.24999716,-6.66982000,0.48620440
41.49999714,-6.41008400,0.64216820
41.74999712,-6.18147900,0.82377000
41.99999711,-5.89580000,0.99529970
42.24999709,-5.60981600,1.23397600
42.49999707,-5.28781600,1.56635300
42.74999705,-4.95513300,1.96618200
42.99999704,-4.60719100,2.38676600
43.24999702,-4.34226600,2.93187600
43.49999700,-3.99920600,3.53955600
43.74999698,-3.64058100,4.15730700
43.99999697,-3.28745000,4.83762600
44.24999695,-2.91844700,5.48162600
44.49999693,-2.57019900,6.15645200
44.74999692,-2.14412200,6.78488600
44.99999690,-1.76474200,7.35593900
45.24999688,-1.27640100,7.86472900
45.49999686,-0.87107800,8.24380400
45.74999685,-0.33085090,8.41533400
45.99999683,0.20449270,8.38420200
46.24999681,0.78134540,8.05701400
46.49999680,1.41527300,7.57935500
46.74999678,1.99700900,7.28329800
46.99999676,2.46459500,7.15358300
47.24999674,2.93248700,7.06507100
47.49999673,3.34299800,7.06507100
47.74999671,3.73245000,6.97686500
47.99999669,4.10145300,6.82639500
48.24999667,4.47564400,6.60816700
48.49999666,4.82908100,6.26022400
48.74999664,5.18221200,5.80332000
48.99999662,5.52008300,5.18556900
49.24999661,5.85246000,4.44817500
49.49999659,6.11250200,3.63295100
49.74999657,6.43450100,2.76065200
49.99999655,6.68386000,1.87797600
50.24999654,6.86057900,1.13539200
