Time,Channel B,Channel C
(ms),(V),(V)

-0.49999997,-6.59718000,-2.16701200
-0.24999998,-6.79465200,-1.36216600
0.00000000,-6.90391900,-0.71328290
0.24999998,-6.94023900,-0.20937610
0.49999997,-6.90391900,0.13856670
0.74999995,-6.75833200,0.37205470
0.99999993,-6.58161400,0.57990480
1.24999991,-6.35819800,0.67848860
1.49999990,-6.09846200,0.87046750
1.74999988,-5.80728800,1.08350600
1.99999986,-5.47491100,1.31699400
2.24999984,-5.17336100,1.64937100
2.49999983,-4.84098400,2.07514300
2.74999981,-4.52905600,2.59980500
2.99999979,-4.19667900,3.11378300
3.24999978,-3.86399700,3.67964800
3.49999976,-3.53162000,4.32883600
3.74999974,-3.19374900,4.96734200
3.99999972,-2.78842600,5.67879400
4.24999971,-2.39866900,6.32798200
4.49999969,-2.05591500,6.96129900
4.74999967,-1.61427200,7.52746900
4.99999966,-1.16744000,7.98437300
5.24999964,-0.67360510,8.30087900
5.49999962,-0.19045290,8.46203100
5.74999960,0.36045660,8.31675000
5.99999959,0.99957270,7.95843000
6.24999957,1.59168600,7.47527700
6.49999955,2.16335000,7.24697800
6.74999953,2.61537100,7.14839500
6.99999952,3.05701400,7.08613100
7.24999950,3.47790200,7.07026000
7.49999948,3.83652800,6.96648700
7.74999947,4.23666200,6.79526300
7.99999945,4.56903900,6.54590400
8.24999943,4.93804200,6.13569800
8.49999941,5.27591200,5.63209600
8.74999940,5.61347800,4.97771900
8.99999938,5.94616000,4.20400400
9.24999936,6.26816000,3.32651700
9.49999935,6.55933300,2.46978400
9.74999933,6.74642900,1.59748500
9.99999931,6.90208800,0.92235380
10.24999929,6.93840800,0.33054570
10.49999928,6.92284200,-0.03296301
10.74999926,6.81906900,-0.29788790
10.99999924,6.66310600,-0.45873520
11.24999922,6.42931300,-0.61958250
11.49999921,6.20070800,-0.77554630
11.74999919,5.90465100,-0.97271390
11.99999917,5.59272400,-1.21688400
12.24999916,5.28110100,-1.53369500
12.49999914,4.96398500,-1.93352500
12.74999912,4.63160800,-2.40080600
12.99999910,4.28854800,-2.97185900
13.24999909,3.97692600,-3.50659300
13.49999907,3.63905500,-4.11427200
13.74999905,3.27524100,-4.78421400
13.99999904,2.92729800,-5.44866300
14.24999902,2.54273000,-6.09785100
14.49999900,2.17372700,-6.73635700
14.74999898,1.79434700,-7.32847000
14.99999897,1.31638400,-7.80612900
15.24999895,0.84879740,-8.15926000
15.49999893,0.36564520,-8.34605000
15.74999891,-0.15932120,-8.28897600
15.99999890,-0.75173970,-8.01367400
16.24999888,-1.36491300,-7.54120300
16.49999886,-1.95183700,-7.25064100
16.74999885,-2.43010600,-7.09986500
16.99999883,-2.89250400,-7.05835700
17.24999881,-3.29263800,-7.03241300
17.49999879,-3.69246700,-6.93383000
17.74999878,-4.05628100,-6.81937500
17.99999876,-4.41490700,-6.61183000
18.24999874,-4.78909800,-6.30020800
18.49999873,-5.13704100,-5.86405800
18.74999871,-5.47491100,-5.30338200
18.99999869,-5.78653400,-4.52447800
19.24999867,-6.10883900,-3.69887700
19.49999866,-6.43602700,-2.84214400
19.74999864,-6.67500900,-1.94390200
19.99999862,-6.82578400,-1.19094100
20.24999860,-6.92986200,-0.56769620
20.49999859,-6.91948500,-0.11598100
20.74999857,-6.86210400,0.19045290
20.99999855,-6.72201200,0.42394090
21.24999854,-6.51935100,0.54877310
21.49999852,-6.29074600,0.73037480
21.74999850,-6.00995000,0.88603340
21.99999848,-5.73464800,1.15614700
22.24999847,-5.42821400,1.37437400
22.49999845,-5.10072000,1.74276600
22.74999843,-4.77353200,2.22073000
22.99999841,-4.45641600,2.71914300
23.24999840,-4.11335600,3.23831000
23.49999838,-3.79135600,3.85636700
23.74999836,-3.44310800,4.50006100
23.99999835,-3.08478800,5.17519200
24.24999833,-2.72097400,5.79813200
24.49999831,-2.33640600,6.50958300
24.74999829,-1.92589400,7.12764000
24.99999828,-1.51538300,7.66237300
25.24999826,-1.04260800,8.08295600
25.49999824,-0.58539860,8.37901300
25.74999823,-0.02411183,8.43090000
25.99999821,0.50054940,8.22304900
26.24999819,1.11891100,7.79727700
26.49999817,1.74246100,7.40782500
26.74999816,2.26742800,7.22103500
26.99999814,2.74539100,7.12245100
27.24999812,3.15071400,7.09132000
27.49999810,3.57160300,7.03393900
27.74999809,3.94030000,6.95092200
27.99999807,4.31968000,6.73299900
28.24999805,4.69906000,6.47326300
28.49999804,5.05768500,6.01117100
28.74999802,5.34336500,5.48162600
28.99999800,5.70199000,4.80130600
29.24999798,6.02399000,4.00683700
29.49999797,6.33072900,3.10859500
29.74999795,6.56452200,2.22591900
29.99999793,6.79831500,1.40550600
30.24999792,6.91246500,0.75112930
30.49999790,6.93321900,0.25790500
30.74999788,6.89171000,-0.10560370
30.99999786,6.78274900,-0.37571730
31.24999785,6.59565400,-0.51581000
31.49999783,6.36704900,-0.67146870
31.74999781,6.10731300,-0.85856430
31.99999779,5.84208300,-1.05573200
32.24999778,5.51489400,-1.28952500
32.49999776,5.22372100,-1.63227900
32.74999774,4.87577800,-2.05805200
32.99999773,4.56385000,-2.53571000
33.24999771,4.24703900,-3.02374600
33.49999769,3.89879100,-3.64699100
33.74999767,3.54566000,-4.28549600
33.99999766,3.21297800,-4.92949600
34.24999764,2.81284300,-5.60462700
34.49999762,2.48046600,-6.28464200
34.74999761,2.04920000,-6.86637800
34.99999759,1.67500900,-7.46856300
35.24999757,1.20223400,-7.90990100
35.49999755,0.74471980,-8.21633500
35.74999754,0.24600170,-8.35123900
35.99999752,-0.30490780,-8.27341000
36.24999750,-0.90739830,-7.88914600
36.49999748,-1.52057100,-7.44262000
36.74999747,-2.08704700,-7.20363800
36.99999745,-2.57019900,-7.09467700
37.24999743,-3.00146500,-7.03241300
37.49999742,-3.40159900,-6.99609300
37.74999740,-3.78616800,-6.93901800
37.99999738,-4.14998100,-6.77267700
38.24999736,-4.52386800,-6.54956600
38.49999735,-4.86173800,-6.19643500
38.74999733,-5.21517500,-5.68764500
38.99999731,-5.52160900,-5.09034300
39.24999729,-5.89061200,-4.35813700
39.49999728,-6.16591400,-3.49621500
39.74999726,-6.47784100,-2.61353900
39.99999724,-6.69088000,-1.75161800
40.24999723,-6.90391900,-1.01422300
40.49999721,-6.92467300,-0.44835790
40.74999719,-6.92467300,-0.01739714
40.99999717,-6.84653900,0.26828230
41.24999716,-6.69088000,0.45507260
41.49999714,-6.47784100,0.59028200
41.74999712,-6.23336600,0.77188380
41.99999711,-5.94249800,0.95897940
42.24999709,-5.65163000,1.19765600
42.49999707,-5.35007900,1.47814700
42.74999705,-5.01251400,1.86241000
42.99999704,-4.70058600,2.32969100
43.24999702,-4.37339700,2.80734900
43.49999700,-4.06665800,3.38359200
43.74999698,-3.70833800,4.01202500
43.99999697,-3.37565600,4.67159100
44.24999695,-2.99108800,5.34641700
44.49999693,-2.65352200,5.96447300
44.74999692,-2.22744500,6.63411000
44.99999690,-1.79617900,7.26773300
45.24999688,-1.39085600,7.77652300
45.49999686,-0.92815290,8.16078600
45.74999685,-0.43462340,8.42571100
45.99999683,0.10041510,8.42571100
46.24999681,0.65651320,8.15040900
46.49999680,1.28006400,7.69350500
46.74999678,1.88285900,7.35593900
46.99999676,2.38157700,7.18471500
47.24999674,2.83878600,7.12764000
47.49999673,3.26486400,7.08613100
47.74999671,3.65462100,7.01837300
47.99999669,4.04437800,6.87309200
48.24999667,4.41856900,6.68111300
48.49999666,4.75613500,6.35911400
48.74999664,5.09919400,5.90739800
48.99999662,5.43157100,5.33604000
49.24999661,5.80057400,4.61939900
49.49999659,6.08625300,3.83042400
49.74999657,6.41893500,2.89555600
49.99999655,6.64235100,2.01288000
50.24999654,6.83982400,1.21322200
