Time,Channel B,Channel C
(ms),(V),(V)

-0.49999997,-6.70125700,-1.66341100
-0.24999998,-6.86210400,-0.94677080
0.00000000,-6.90910800,-0.41722620
0.24999998,-6.89873000,-0.03815163
0.49999997,-6.82059600,0.28903680
0.74999995,-6.64906600,0.45507260
0.99999993,-6.45159300,0.60065930
1.24999991,-6.19185700,0.77707240
1.49999990,-5.90098900,0.95379070
1.74999988,-5.64125300,1.17171300
1.99999986,-5.35007900,1.48852400
2.24999984,-4.99694800,1.87278700
2.49999983,-4.69020900,2.30893700
2.74999981,-4.35783100,2.85404700
2.99999979,-4.04590400,3.43059400
3.24999978,-3.69765600,4.03796900
3.49999976,-3.34971300,4.69753400
3.74999974,-2.98589900,5.36717100
3.99999972,-2.60133100,6.04230300
4.24999971,-2.23263300,6.70705700
4.49999969,-1.79617900,7.26254400
4.74999967,-1.41161000,7.77652300
4.99999966,-0.93364670,8.17116400
5.24999964,-0.42424610,8.39976800
5.49999962,0.11598100,8.38939100
5.74999960,0.67726770,8.12446600
5.99999959,1.31119500,7.68831600
6.24999957,1.91399100,7.35593900
6.49999955,2.41270900,7.19509200
6.74999953,2.84916400,7.11207400
6.99999952,3.27005200,7.09132000
7.24999950,3.66499800,7.01837300
7.49999948,4.04437800,6.88347000
7.74999947,4.40300300,6.69667900
7.99999945,4.78207800,6.34354800
8.24999943,5.11994900,5.93334200
8.49999941,5.47857400,5.35160500
8.74999940,5.81095100,4.56751300
8.99999938,6.14363300,3.75228900
9.24999936,6.41374700,2.82810400
9.49999935,6.66310600,1.96618200
9.74999933,6.81906900,1.19765600
9.99999931,6.92284200,0.57471620
10.24999929,6.94909000,0.13337810
10.49999928,6.86576700,-0.19899890
10.74999926,6.71499200,-0.39647170
10.99999924,6.54376700,-0.56250760
11.24999922,6.31516300,-0.71328290
11.49999921,6.03436700,-0.88969600
11.74999919,5.72793300,-1.09724100
11.99999917,5.42119400,-1.38810900
12.24999916,5.12513700,-1.75161800
12.49999914,4.78207800,-2.19814400
12.74999912,4.48083300,-2.68099100
12.99999910,4.14815000,-3.22121800
13.24999909,3.78464200,-3.84415800
13.49999907,3.44677100,-4.49853500
13.74999905,3.09852300,-5.14741800
13.99999904,2.71426000,-5.81217200
14.24999902,2.36082300,-6.45617200
14.49999900,1.92955700,-7.08430000
14.74999898,1.52942300,-7.59827900
14.99999897,1.07221300,-8.01367400
15.24999895,0.57868390,-8.28378700
15.49999893,0.06928336,-8.34605000
15.74999891,-0.50207540,-8.19039200
15.99999890,-1.10487100,-7.72829900
16.24999888,-1.73361000,-7.34922500
16.49999886,-2.23263300,-7.16212900
16.74999885,-2.70022000,-7.08430000
16.99999883,-3.10554300,-7.02203600
17.24999881,-3.53162000,-6.95977300
17.49999879,-3.91618800,-6.87675500
17.74999878,-4.26932000,-6.72079100
17.99999876,-4.63313400,-6.44060600
18.24999874,-4.99175900,-6.06672000
18.49999873,-5.29819300,-5.54205800
18.74999871,-5.63087500,-4.86723200
18.99999869,-5.95287500,-4.06238600
19.24999867,-6.26480300,-3.23678400
19.49999866,-6.52972700,-2.33854200
19.74999864,-6.73238900,-1.51294100
19.99999862,-6.89354200,-0.82743250
20.24999860,-6.93505000,-0.30307650
20.49999859,-6.88285900,0.08637529
20.74999857,-6.79465200,0.31497990
20.99999855,-6.60755700,0.50695880
21.24999854,-6.39970700,0.66811130
21.49999852,-6.13997100,0.81858130
21.74999850,-5.86985700,1.00048800
21.99999848,-5.54755200,1.26510800
22.24999847,-5.23074100,1.57154200
22.49999845,-4.93437900,1.98693700
22.74999843,-4.59681400,2.41789800
22.99999841,-4.28488600,2.97857400
23.24999840,-3.95250900,3.55512100
23.49999838,-3.57312900,4.19881600
23.74999836,-3.26120100,4.86357000
23.99999835,-2.89250400,5.54907800
24.24999833,-2.53387900,6.19277200
24.49999831,-2.12336700,6.82120600
24.74999829,-1.69210100,7.40263700
24.99999828,-1.27640100,7.84916400
25.24999826,-0.81919180,8.22304900
25.49999824,-0.31009640,8.41533400
25.74999823,0.24081310,8.32193900
25.99999821,0.86955200,8.01550500
26.24999819,1.45678200,7.60011000
26.49999817,2.03851800,7.29367600
26.74999816,2.50640900,7.16914900
26.99999814,2.97399600,7.11207400
27.24999812,3.35856400,7.07544900
27.49999810,3.76388700,7.00280800
27.74999809,4.16890500,6.85233800
27.99999807,4.51715300,6.61854500
28.24999805,4.84983500,6.26571800
28.49999804,5.21334400,5.79813200
28.74999802,5.54602600,5.12849500
28.99999800,5.86283700,4.38591100
29.24999798,6.18514200,3.53955600
29.49999797,6.48119900,2.64131400
29.74999795,6.70980400,1.75833200
29.99999793,6.86057900,1.01605400
30.24999792,6.95427900,0.43431820
30.49999790,6.92803000,0.04486632
30.74999788,6.85020100,-0.26126240
30.99999786,6.67348300,-0.42241480
31.24999785,6.47601000,-0.57288490
31.49999783,6.25778300,-0.75998040
31.74999781,5.97210400,-0.94158220
31.99999779,5.66536400,-1.19094100
32.24999778,5.35374200,-1.45037200
32.49999776,5.02624800,-1.84501300
32.74999774,4.69906000,-2.28635100
32.99999773,4.37675500,-2.82657800
33.24999771,4.04956700,-3.39763100
33.49999769,3.71169600,-4.02087600
33.74999767,3.36375300,-4.66457100
33.99999766,3.01031600,-5.32932500
34.24999764,2.65169100,-5.97301900
34.49999762,2.26223900,-6.61701900
34.74999761,1.84135000,-7.22439200
34.99999759,1.42046100,-7.69716700
35.24999757,0.97332440,-8.10218500
35.49999755,0.49536080,-8.33567300
35.74999754,-0.06043218,-8.33048400
35.99999752,-0.63209620,-8.11256200
36.24999750,-1.22970300,-7.64528100
36.49999748,-1.81693300,-7.29215000
36.74999747,-2.33121700,-7.11543100
36.99999745,-2.80918100,-7.04797900
37.24999743,-3.20931500,-7.01165900
37.49999742,-3.61982700,-6.95458400
37.74999740,-4.00958300,-6.83005700
37.99999738,-4.35783100,-6.64296200
38.24999736,-4.69020900,-6.35209400
38.49999735,-5.04883400,-5.93151000
38.74999733,-5.39677700,-5.36564500
38.99999731,-5.72427000,-4.67494800
39.24999729,-6.05176400,-3.87529000
39.49999728,-6.34782100,-2.98223700
39.74999726,-6.60236800,-2.12031500
39.99999724,-6.76871000,-1.35697700
40.24999723,-6.88285900,-0.69252840
40.49999721,-6.91948500,-0.21456480
40.74999719,-6.84653900,0.14375530
40.99999717,-6.75833200,0.37724330
41.24999716,-6.54529300,0.52252470
41.49999714,-6.33744300,0.67330000
41.74999712,-6.09327300,0.86527900
41.99999711,-5.80728800,1.06275200
42.24999709,-5.48010000,1.30142800
42.49999707,-5.19442100,1.68050300
42.74999705,-4.85136100,2.08033200
42.99999704,-4.54462200,2.55280200
43.24999702,-4.20186800,3.12416100
43.49999700,-3.87437400,3.73672300
43.74999698,-3.53162000,4.34959100
43.99999697,-3.17818300,5.01404000
44.24999695,-2.81955800,5.66841700
44.49999693,-2.42491700,6.33835900
44.74999692,-2.01959500,6.97167600
44.99999690,-1.61946000,7.54822300
45.24999688,-1.18300600,7.97918400
45.49999686,-0.67360510,8.29569100
45.74999685,-0.16450980,8.44646500
45.99999683,0.38639970,8.31675000
46.24999681,0.99438410,7.92211000
46.49999680,1.59687500,7.49633700
46.74999678,2.17372700,7.24697800
46.99999676,2.65169100,7.16914900
47.24999674,3.07258000,7.10688500
47.49999673,3.48309100,7.07026000
47.74999671,3.86247100,6.97167600
47.99999669,4.24703900,6.82639500
48.24999667,4.57422800,6.56147000
48.49999666,4.95360800,6.15645200
48.74999664,5.30185600,5.63209600
48.99999662,5.60829000,4.97253100
49.24999661,5.95134900,4.18843800
49.49999659,6.27853700,3.32132800
49.74999657,6.55414500,2.40233200
49.99999655,6.76199500,1.58191900
50.24999654,6.90208800,0.87046750
