Time,Channel B,Channel C
(ms),(V),(V)

-0.49999997,-6.63350000,-2.00097700
-0.24999998,-6.81540700,-1.22726200
0.00000000,-6.91429600,-0.62995970
0.24999998,-6.92467300,-0.14192410
0.49999997,-6.87767000,0.21120740
0.74999995,-6.74276600,0.40318640
0.99999993,-6.56085900,0.54877310
1.24999991,-6.30112300,0.71999750
1.49999990,-6.05176400,0.87046750
1.74999988,-5.75540200,1.08869500
1.99999986,-5.44377900,1.40031700
2.24999984,-5.12147500,1.69606900
2.49999983,-4.81504100,2.13221800
2.74999981,-4.49273600,2.63612500
2.99999979,-4.16554700,3.18642400
3.24999978,-3.82248800,3.78342100
3.49999976,-3.47942900,4.45336300
3.74999974,-3.11073100,5.09217400
3.99999972,-2.76248300,5.75143400
4.24999971,-2.37272600,6.44732000
4.49999969,-1.97778000,7.05469400
4.74999967,-1.56208000,7.59492100
4.99999966,-1.11524800,8.03626000
5.24999964,-0.62690760,8.33750400
5.49999962,-0.12300090,8.43608900
5.74999960,0.45385180,8.28012500
5.99999959,1.07740200,7.88029500
6.24999957,1.69576400,7.47527700
6.49999955,2.22561300,7.25216700
6.74999953,2.68282200,7.11726300
6.99999952,3.12477100,7.08613100
7.24999950,3.52460000,7.02875100
7.49999948,3.88841400,6.92497900
7.74999947,4.27817100,6.76932000
7.99999945,4.64717400,6.50439500
8.24999943,4.99511700,6.09418900
8.49999941,5.31742100,5.59058700
8.74999940,5.66017600,4.88951300
8.99999938,5.99804600,4.08985500
9.24999936,6.29929200,3.21755600
9.49999935,6.59046500,2.30893700
9.74999933,6.76718300,1.48852400
9.99999931,6.92803000,0.81858130
10.24999929,6.96984500,0.29941400
10.49999928,6.92284200,-0.08484922
10.74999926,6.80869200,-0.35496280
10.99999924,6.59046500,-0.51581000
11.24999922,6.39818100,-0.65590280
11.49999921,6.14882200,-0.80148940
11.74999919,5.87321400,-0.99865700
11.99999917,5.57196900,-1.23763900
12.24999916,5.26553500,-1.59595900
12.49999914,4.93804200,-1.96984500
12.74999912,4.59498200,-2.47863500
12.99999910,4.25741700,-3.01855700
13.24999909,3.91435700,-3.59510400
13.49999907,3.58198000,-4.23361000
13.74999905,3.20260000,-4.89836400
13.99999904,2.88548400,-5.54724700
14.24999902,2.49603200,-6.20681200
14.49999900,2.10108700,-6.82456400
14.74999898,1.69576400,-7.40111100
14.99999897,1.26449800,-7.87876900
15.24999895,0.78653400,-8.23708900
15.49999893,0.28232200,-8.38237100
15.74999891,-0.26309370,-8.28378700
15.99999890,-0.84513490,-7.97735300
16.24999888,-1.46349600,-7.51007200
16.49999886,-2.02997200,-7.26101800
16.74999885,-2.52350100,-7.09986500
16.99999883,-2.95995600,-7.01684800
17.24999881,-3.37046700,-7.00647000
17.49999879,-3.74465900,-6.97015000
17.74999878,-4.12403900,-6.81418600
17.99999876,-4.48754700,-6.57551000
18.24999874,-4.82541800,-6.24313300
18.49999873,-5.18373800,-5.79141700
18.74999871,-5.51642000,-5.16298400
18.99999869,-5.83872600,-4.44146000
19.24999867,-6.17110300,-3.55878400
19.49999866,-6.43602700,-2.66023700
19.74999864,-6.69088000,-1.80350400
19.99999862,-6.83097300,-1.07129800
20.24999860,-6.92986200,-0.47948970
20.49999859,-6.91948500,-0.06928336
20.74999857,-6.83097300,0.25790500
20.99999855,-6.69606900,0.47063850
21.24999854,-6.47265300,0.58509340
21.49999852,-6.22817700,0.75631790
21.74999850,-5.96844100,0.94860210
21.99999848,-5.69313900,1.16133600
22.24999847,-5.39158800,1.44182600
22.49999845,-5.04883400,1.80014600
22.74999843,-4.73171800,2.23110700
22.99999841,-4.39934100,2.77621800
23.24999840,-4.09260200,3.33689400
23.49999838,-3.73947000,3.96013900
23.74999836,-3.39641100,4.58826700
23.99999835,-3.02740800,5.24264400
24.24999833,-2.67427700,5.90739800
24.49999831,-2.26895400,6.60297900
24.74999829,-1.86363100,7.17433700
24.99999828,-1.44274200,7.73501400
25.24999826,-0.96996700,8.11927700
25.49999824,-0.51275790,8.38939100
25.74999823,0.03296301,8.45165400
25.99999821,0.58906110,8.18672900
26.24999819,1.21780000,7.75058000
26.49999817,1.82029100,7.36112800
26.74999816,2.30893700,7.17952600
26.99999814,2.78690000,7.08613100
27.24999812,3.23373200,7.07544900
27.49999810,3.60273500,7.05469400
27.74999809,4.00286900,6.91979000
27.99999807,4.36637800,6.71224500
28.24999805,4.70424800,6.40062200
28.49999804,5.05768500,6.01635900
28.74999802,5.40043900,5.42943500
28.99999800,5.74349900,4.74423100
29.24999798,6.08106500,3.89268700
29.49999797,6.37223800,3.01001100
29.74999795,6.63716300,2.10108700
29.99999793,6.83982400,1.31699400
30.24999792,6.92803000,0.66811130
30.49999790,6.94909000,0.17488710
30.74999788,6.89689900,-0.17824440
30.99999786,6.76199500,-0.36534000
31.24999785,6.58008800,-0.52618730
31.49999783,6.33591700,-0.67146870
31.74999781,6.07587600,-0.85337570
31.99999779,5.79538500,-1.08167500
32.24999778,5.48895100,-1.34660000
32.49999776,5.18221200,-1.68935400
32.74999774,4.84464600,-2.06324000
32.99999773,4.50677600,-2.58240700
33.24999771,4.16371600,-3.13270700
33.49999769,3.85728200,-3.75076300
33.74999767,3.48828000,-4.38957400
33.99999766,3.13514800,-5.04364500
34.24999764,2.76095700,-5.68764500
34.49999762,2.39714300,-6.38322500
34.74999761,2.00219800,-6.99609300
34.99999759,1.59687500,-7.52044900
35.24999757,1.15523100,-7.98254200
35.49999755,0.69283360,-8.28897600
35.74999754,0.16817240,-8.37199300
35.99999752,-0.39311440,-8.24227800
36.24999750,-1.00109900,-7.85801500
36.49999748,-1.58832900,-7.42186500
36.74999747,-2.15449900,-7.16731800
36.99999745,-2.64314500,-7.07392300
37.24999743,-3.05335100,-7.02722500
37.49999742,-3.46905100,-7.00128200
37.74999740,-3.84843100,-6.90788700
37.99999738,-4.19667900,-6.79343200
38.24999736,-4.55530500,-6.50286900
38.49999735,-4.91362500,-6.16011500
38.74999733,-5.27225000,-5.63057000
38.99999731,-5.58906100,-4.98657000
39.24999729,-5.95287500,-4.23879900
39.49999728,-6.22817700,-3.36131100
39.74999726,-6.52453900,-2.47863500
39.99999724,-6.73757800,-1.60114800
40.24999723,-6.88804800,-0.90526190
40.49999721,-6.92467300,-0.36015140
40.74999719,-6.89873000,0.05524356
40.99999717,-6.83097300,0.29422540
41.24999716,-6.64906600,0.47063850
41.49999714,-6.43602700,0.65254550
41.74999712,-6.18666800,0.79782690
41.99999711,-5.90098900,0.95897940
42.24999709,-5.61530900,1.24435400
42.49999707,-5.31375900,1.50927800
42.74999705,-5.00213600,1.89873000
42.99999704,-4.64870000,2.37120000
43.24999702,-4.32639500,2.88517900
43.49999700,-3.96807500,3.48248100
43.74999698,-3.64577000,4.11060900
43.99999697,-3.30301500,4.75979700
44.24999695,-2.95476700,5.41386900
44.49999693,-2.58057600,6.09937700
44.74999692,-2.17006500,6.72781100
44.99999690,-1.78030800,7.34037400
45.24999688,-1.35423000,7.84397500
45.49999686,-0.87626660,8.22304900
45.74999685,-0.38273720,8.39457900
45.99999683,0.15260650,8.42052300
46.24999681,0.71877670,8.07776800
46.49999680,1.39421300,7.62086400
46.74999678,1.91918000,7.31961900
46.99999676,2.45421800,7.16914900
47.24999674,2.89586100,7.08063700
47.49999673,3.33781000,7.05469400
47.74999671,3.70650700,6.99761900
47.99999669,4.09107500,6.90422400
48.24999667,4.44970100,6.67592500
48.49999666,4.79245500,6.32798200
48.74999664,5.13551500,5.86588900
48.99999662,5.47857400,5.27896500
49.24999661,5.83689400,4.54157000
49.49999659,6.12806700,3.69521400
49.74999657,6.45006700,2.79178400
49.99999655,6.69423800,1.91948500
50.24999654,6.86576700,1.16652400
