Time,Channel B,Channel C
(ms),(V),(V)

-0.49999997,-6.74795500,-1.63227900
-0.24999998,-6.86729300,-0.91045050
0.00000000,-6.92986200,-0.37571730
0.24999998,-6.90391900,0.02930045
0.49999997,-6.80503000,0.29941400
0.74999995,-6.63350000,0.47063850
0.99999993,-6.41008400,0.62141370
1.24999991,-6.17110300,0.79263820
1.49999990,-5.90617800,0.99011110
1.74999988,-5.60981600,1.23397600
1.99999986,-5.29819300,1.54559900
2.24999984,-4.96551100,1.89873000
2.49999983,-4.65907700,2.36601100
2.74999981,-4.33158300,2.91631100
2.99999979,-3.98882900,3.50842400
3.24999978,-3.65095800,4.13655200
3.49999976,-3.30820400,4.78574000
3.74999974,-2.93401300,5.47643800
3.99999972,-2.57538700,6.12013200
4.24999971,-2.15449900,6.77450800
4.49999969,-1.77511900,7.36112800
4.74999967,-1.33866400,7.88548400
4.99999966,-0.86588940,8.25937000
5.24999964,-0.33085090,8.43608900
5.49999962,0.19930410,8.39976800
5.74999960,0.81766570,8.09852200
5.99999959,1.41008400,7.61048700
6.24999957,1.97106600,7.28329800
6.49999955,2.48565500,7.15877200
6.74999953,2.90135500,7.10169700
6.99999952,3.34299800,7.07026000
7.24999950,3.73763900,6.98724200
7.49999948,4.09107500,6.84196000
7.74999947,4.46007800,6.64967600
7.99999945,4.82389200,6.30203900
8.24999943,5.14070300,5.83445200
8.49999941,5.49414000,5.23745600
8.74999940,5.83689400,4.50006100
8.99999938,6.17476500,3.62776200
9.24999936,6.45006700,2.74508600
9.49999935,6.67867200,1.89873000
9.74999933,6.86576700,1.13020400
9.99999931,6.93840800,0.53839580
10.24999929,6.93321900,0.09156391
10.49999928,6.87095600,-0.22494200
10.74999926,6.70461500,-0.43279210
10.99999924,6.51233100,-0.57288490
11.24999922,6.26297100,-0.74441460
11.49999921,5.99285800,-0.93639360
11.74999919,5.71236700,-1.14424400
11.99999917,5.38487300,-1.41924100
12.24999916,5.07844000,-1.77756100
12.49999914,4.76132300,-2.21371000
12.74999912,4.42894600,-2.75393700
12.99999910,4.09626400,-3.32499100
13.24999909,3.74801600,-3.96899000
13.49999907,3.43120500,-4.58674100
13.74999905,3.05701400,-5.25668400
13.99999904,2.68282200,-5.90037800
14.24999902,2.29855900,-6.55475500
14.49999900,1.89323600,-7.15175200
14.74999898,1.45159300,-7.63978800
14.99999897,1.00995000,-8.04999400
15.24999895,0.53168110,-8.30454200
15.49999893,-0.00335734,-8.34086200
15.74999891,-0.55945550,-8.13331700
15.99999890,-1.17781700,-7.68679000
16.24999888,-1.76993000,-7.30252700
16.49999886,-2.28452000,-7.09986500
16.74999885,-2.76248300,-6.99090400
16.99999883,-3.15224000,-6.99090400
17.24999881,-3.58350600,-6.93901800
17.49999879,-3.94213200,-6.81937500
17.74999878,-4.31082900,-6.71041400
17.99999876,-4.65907700,-6.37284800
18.24999874,-4.98138200,-5.98858500
18.49999873,-5.36045600,-5.45385200
18.74999871,-5.67757300,-4.78940300
18.99999869,-5.98919500,-3.96899000
19.24999867,-6.30112300,-3.11714100
19.49999866,-6.57123700,-2.25003100
19.74999864,-6.78427600,-1.43999500
19.99999862,-6.90910800,-0.77554630
20.24999860,-6.91429600,-0.27682820
20.49999859,-6.90910800,0.06562080
20.74999857,-6.76871000,0.34611160
20.99999855,-6.58161400,0.51214750
21.24999854,-6.37376400,0.66292270
21.49999852,-6.13478200,0.82895860
21.74999850,-5.85948000,1.04718600
21.99999848,-5.52679800,1.29624000
22.24999847,-5.24111800,1.61305100
22.49999845,-4.90843600,2.02844600
22.74999843,-4.58124800,2.45940700
22.99999841,-4.26932000,3.05670900
23.24999840,-3.91069500,3.64851700
23.49999838,-3.57831800,4.29251600
23.74999836,-3.20931500,4.95696500
23.99999835,-2.85099500,5.62690700
24.24999833,-2.48718100,6.32279300
24.49999831,-2.06629200,6.89903500
24.74999829,-1.61946000,7.50671400
24.99999828,-1.21932600,7.95843000
25.24999826,-0.74655110,8.31675000
25.49999824,-0.22677330,8.45684200
25.74999823,0.32383100,8.34269300
25.99999821,0.92143820,7.96361800
26.24999819,1.58130900,7.48565500
26.49999817,2.10627500,7.25735600
26.74999816,2.57386200,7.13801700
26.99999814,3.03625900,7.07026000
27.24999812,3.43120500,7.05469400
27.49999810,3.83652800,6.97167600
27.74999809,4.18477600,6.78488600
27.99999807,4.52753000,6.54590400
28.24999805,4.88096700,6.20315000
28.49999804,5.23409800,5.68917100
28.74999802,5.58234600,5.07660800
28.99999800,5.91502900,4.30289300
29.24999798,6.21108500,3.42021700
29.49999797,6.50195300,2.51648100
29.74999795,6.74124100,1.67531400
29.99999793,6.88133300,0.95897940
30.24999792,6.98022200,0.38762060
30.49999790,6.92803000,-0.00183128
30.74999788,6.81388100,-0.26126240
30.99999786,6.65791700,-0.46392380
31.24999785,6.45525600,-0.63514830
31.49999783,6.22146200,-0.75479190
31.74999781,5.94616000,-0.95714810
31.99999779,5.62904400,-1.18056400
32.24999778,5.34336500,-1.51294100
32.49999776,5.00030500,-1.88652200
32.74999774,4.67830600,-2.35929700
32.99999773,4.36118900,-2.88884100
33.24999771,4.02362300,-3.46508400
33.49999769,3.66499800,-4.10908300
33.74999767,3.30637300,-4.73721200
33.99999766,2.94805300,-5.38640000
34.24999764,2.58942700,-6.06672000
34.49999762,2.20485900,-6.73116800
34.74999761,1.78915900,-7.29215000
34.99999759,1.35789300,-7.78018500
35.24999757,0.90587230,-8.14888300
35.49999755,0.40715420,-8.32010700
35.74999754,-0.13337810,-8.30973100
35.99999752,-0.71511410,-8.01886200
36.24999750,-1.33347600,-7.52563800
36.49999748,-1.88438500,-7.24026300
36.74999747,-2.37791500,-7.08430000
36.99999745,-2.84550100,-7.02203600
37.24999743,-3.27157900,-7.00647000
37.49999742,-3.66133500,-6.92864100
37.74999740,-4.04071500,-6.83524600
37.99999738,-4.38377500,-6.60664100
38.24999736,-4.76315500,-6.29501900
38.49999735,-5.09034300,-5.88481200
38.74999733,-5.45415700,-5.30857000
38.99999731,-5.76059100,-4.60230700
39.24999729,-6.07251800,-3.78189500
39.49999728,-6.36338700,-2.93553900
39.74999726,-6.62831200,-2.01135400
39.99999724,-6.82059600,-1.27395900
40.24999723,-6.91429600,-0.63514830
40.49999721,-6.91948500,-0.17824440
40.74999719,-6.87248200,0.18007570
40.99999717,-6.72720100,0.39799780
41.24999716,-6.55048200,0.54358440
41.49999714,-6.31668900,0.73037480
41.74999712,-6.05176400,0.91716520
41.99999711,-5.76577900,1.10426100
42.24999709,-5.49566600,1.36399700
42.49999707,-5.12666300,1.71682300
42.74999705,-4.84098400,2.13221800
42.99999704,-4.51867900,2.63612500
43.24999702,-4.13960500,3.16567000
43.49999700,-3.82767700,3.79379800
43.74999698,-3.48461700,4.45855200
43.99999697,-3.13667400,5.11292900
44.24999695,-2.75729500,5.77737800
44.49999693,-2.37272600,6.42656600
44.74999692,-1.98815800,7.06507100
44.99999690,-1.56208000,7.63124100
45.24999688,-1.09968300,8.06220200
45.49999686,-0.61653030,8.35307000
45.74999685,-0.10743500,8.45684200
45.99999683,0.45385180,8.24380400
46.24999681,1.07740200,7.82840900
46.49999680,1.69576400,7.40782500
46.74999678,2.23599100,7.21065800
46.99999676,2.69869400,7.11207400
47.24999674,3.12477100,7.08063700
47.49999673,3.52460000,7.03393900
47.74999671,3.88841400,6.94054500
47.99999669,4.28336000,6.76413100
48.24999667,4.64717400,6.48364100
48.49999666,4.99511700,6.07343400
48.74999664,5.33298700,5.54389000
48.99999662,5.68642400,4.89470100
49.24999661,6.01361200,4.08985500
49.49999659,6.29410300,3.24349900
49.74999657,6.58008800,2.32969100
49.99999655,6.79312700,1.49890100
50.24999654,6.91765400,0.82377000
