Time,Channel B,Channel C
(ms),(V),(V)

-0.49999997,-6.73238900,-1.59077000
-0.24999998,-6.86729300,-0.88450740
0.00000000,-6.91948500,-0.33939690
0.24999998,-6.90391900,0.03448907
0.49999997,-6.80503000,0.30460260
0.74999995,-6.64387800,0.47582710
0.99999993,-6.42046100,0.62141370
1.24999991,-6.17629100,0.77188380
1.49999990,-5.90617800,0.97454520
1.74999988,-5.59943800,1.23397600
1.99999986,-5.27743900,1.50409000
2.24999984,-4.98657000,1.91429600
2.49999983,-4.63313400,2.40233200
2.74999981,-4.30045200,2.89555600
2.99999979,-3.97845200,3.49804700
3.24999978,-3.64058100,4.13655200
3.49999976,-3.30301500,4.77017500
3.74999974,-2.94439000,5.43981200
3.99999972,-2.55982200,6.10456600
4.24999971,-2.15968800,6.75894300
4.49999969,-1.75955300,7.32480800
4.74999967,-1.34385300,7.83878600
4.99999966,-0.86070070,8.25418100
5.24999964,-0.36198260,8.42052300
5.49999962,0.14222930,8.39457900
5.74999960,0.77615670,8.02588200
5.99999959,1.39940200,7.61048700
6.24999957,1.96068900,7.30924200
6.49999955,2.48046600,7.17433700
6.74999953,2.91173200,7.12764000
6.99999952,3.32193900,7.08613100
7.24999950,3.75351000,7.01318500
7.49999948,4.09626400,6.87828100
7.74999947,4.46526700,6.63929900
7.99999945,4.82389200,6.32798200
8.24999943,5.16145800,5.85001800
8.49999941,5.52008300,5.24264400
8.74999940,5.83170600,4.51043800
8.99999938,6.19033100,3.64851700
9.24999936,6.46044400,2.69838800
9.49999935,6.69942600,1.85203300
9.74999933,6.87095600,1.10944900
9.99999931,6.96465600,0.49658160
10.24999929,6.94390200,0.08118667
10.49999928,6.86057900,-0.23531930
10.74999926,6.69942600,-0.42760350
10.99999924,6.51233100,-0.57807350
11.24999922,6.28372600,-0.71847150
11.49999921,5.97729200,-0.92082770
11.74999919,5.68642400,-1.13905500
11.99999917,5.42119400,-1.40367500
12.24999916,5.07844000,-1.76718300
12.49999914,4.76651200,-2.21889900
12.74999912,4.42894600,-2.74874900
12.99999910,4.08588700,-3.33017900
13.24999909,3.75869800,-3.90642200
13.49999907,3.42082800,-4.54523200
13.74999905,3.05701400,-5.20479800
13.99999904,2.68831600,-5.87443500
14.24999902,2.31931400,-6.54956600
14.49999900,1.88804800,-7.14137500
14.74999898,1.47753600,-7.67122500
14.99999897,1.04108200,-8.08143000
15.24999895,0.53686970,-8.31491900
15.49999893,0.00701990,-8.34605000
15.74999891,-0.54388960,-8.12812800
15.99999890,-1.16225100,-7.69197900
16.24999888,-1.74398700,-7.30771600
16.49999886,-2.30527400,-7.14137500
16.74999885,-2.74172900,-7.06354500
16.99999883,-3.16780600,-7.04797900
17.24999881,-3.55237500,-6.96496200
17.49999879,-3.94213200,-6.85081200
17.74999878,-4.31601800,-6.67409300
17.99999876,-4.64870000,-6.41985100
18.24999874,-5.02289100,-6.02521000
18.49999873,-5.34489100,-5.45385200
18.74999871,-5.69313900,-4.78421400
18.99999869,-6.01513900,-3.97417900
19.24999867,-6.30631200,-3.09638600
19.49999866,-6.56085900,-2.20852200
19.74999864,-6.75314400,-1.40367500
19.99999862,-6.90391900,-0.73922600
20.24999860,-6.93505000,-0.24050790
20.49999859,-6.87767000,0.09675253
20.74999857,-6.75314400,0.36686610
20.99999855,-6.56085900,0.53839580
21.24999854,-6.36338700,0.67848860
21.49999852,-6.10365000,0.82377000
21.74999850,-5.80728800,1.02643100
21.99999848,-5.53198600,1.27548500
22.24999847,-5.20479800,1.61824000
22.49999845,-4.92919100,2.02325700
22.74999843,-4.55530500,2.49053800
22.99999841,-4.22781100,3.04114300
23.24999840,-3.91618800,3.65889400
23.49999838,-3.54718600,4.26657300
23.74999836,-3.21450400,4.94139900
23.99999835,-2.83512400,5.59058700
24.24999833,-2.47161500,6.27090700
24.49999831,-2.09742400,6.91460100
24.74999829,-1.65059200,7.45971200
24.99999828,-1.21413700,7.94286400
25.24999826,-0.73617390,8.26974700
25.49999824,-0.23715050,8.43090000
25.74999823,0.30826510,8.32712700
25.99999821,0.91624950,7.94805200
26.24999819,1.55017700,7.52746900
26.49999817,2.08552100,7.28329800
26.74999816,2.58942700,7.16396000
26.99999814,3.01550500,7.13801700
27.24999812,3.42082800,7.07544900
27.49999810,3.82096200,6.99243100
27.74999809,4.22109600,6.83677200
27.99999807,4.53790800,6.59260200
28.24999805,4.88615600,6.24465800
28.49999804,5.23928700,5.72549200
28.74999802,5.59791200,5.10774000
28.99999800,5.94616000,4.33402500
29.24999798,6.24740600,3.43059400
29.49999797,6.51751900,2.48016100
29.74999795,6.74642900,1.67012600
29.99999793,6.87095600,0.91197660
30.24999792,6.95427900,0.41875230
30.49999790,6.91765400,-0.00701990
30.74999788,6.83982400,-0.30307650
30.99999786,6.65791700,-0.45873520
31.24999785,6.48638700,-0.59882800
31.49999783,6.21627400,-0.77035770
31.74999781,5.95134900,-0.93639360
31.99999779,5.61347800,-1.18575300
32.24999778,5.32779900,-1.51813000
32.49999776,4.99511700,-1.87095600
32.74999774,4.68349400,-2.33335400
32.99999773,4.36637800,-2.87327600
33.24999771,4.00286900,-3.46508400
33.49999769,3.66499800,-4.11427200
33.74999767,3.34299800,-4.71126800
33.99999766,2.95324100,-5.36564500
34.24999764,2.56348400,-6.05115400
34.49999762,2.21004700,-6.68965900
34.74999761,1.77359300,-7.27139500
34.99999759,1.37864700,-7.78018500
35.24999757,0.90068360,-8.15407200
35.49999755,0.38639970,-8.35642700
35.74999754,-0.12300090,-8.32529600
35.99999752,-0.70992550,-8.06067700
36.24999750,-1.32309900,-7.60346700
36.49999748,-1.90514000,-7.26101800
36.74999747,-2.37791500,-7.12062000
36.99999745,-2.87693800,-7.05835700
37.24999743,-3.28226100,-7.01684800
37.49999742,-3.65095800,-6.97015000
37.74999740,-4.01996100,-6.83524600
37.99999738,-4.41490700,-6.63777300
38.24999736,-4.73690600,-6.32615000
38.49999735,-5.10072000,-5.88481200
38.74999733,-5.43859100,-5.33451300
38.99999731,-5.79172200,-4.60749600
39.24999729,-6.09327300,-3.74557400
39.49999728,-6.37376400,-2.90959600
39.74999726,-6.63868900,-2.01135400
39.99999724,-6.78946400,-1.24282700
40.24999723,-6.92467300,-0.58326210
40.49999721,-6.91948500,-0.14192410
40.74999719,-6.86729300,0.18526430
40.99999717,-6.71682300,0.37724330
41.24999716,-6.52972700,0.55396160
41.49999714,-6.31150100,0.69405440
41.74999712,-6.04138700,0.87565620
41.99999711,-5.77615700,1.08869500
42.24999709,-5.48010000,1.37437400
42.49999707,-5.14222900,1.68569200
42.74999705,-4.82023000,2.11665200
42.99999704,-4.47717000,2.62574800
43.24999702,-4.15517000,3.19161300
43.49999700,-3.84843100,3.79379800
43.74999698,-3.46386300,4.42223200
43.99999697,-3.13667400,5.07142000
44.24999695,-2.76248300,5.76181200
44.49999693,-2.39348100,6.43175400
44.74999692,-1.99884000,7.02875100
44.99999690,-1.55170300,7.58454400
45.24999688,-1.14119100,8.04144800
45.49999686,-0.62690760,8.32193900
45.74999685,-0.13337810,8.42052300
45.99999683,0.44347450,8.26974700
46.24999681,1.07740200,7.84916400
46.49999680,1.67500900,7.44414600
46.74999678,2.22042500,7.26773300
46.99999676,2.66725700,7.15358300
47.24999674,3.12996000,7.10688500
47.49999673,3.54047100,7.06507100
47.74999671,3.89879100,6.95611000
47.99999669,4.26779400,6.79526300
48.24999667,4.61085300,6.49920700
48.49999666,4.98992800,6.10456600
48.74999664,5.32261000,5.59577600
48.99999662,5.69161300,4.92064500
49.24999661,6.02917800,4.10023200
49.49999659,6.29929200,3.20717900
49.74999657,6.57489900,2.28818200
49.99999655,6.79831500,1.46777000
50.24999654,6.90208800,0.79263820
