Time,Channel B,Channel C
(ms),(V),(V)

-0.49999997,-6.60755700,-2.07880600
-0.24999998,-6.78427600,-1.31028000
0.00000000,-6.92986200,-0.66109140
0.24999998,-6.91948500,-0.18343300
0.49999997,-6.86210400,0.13856670
0.74999995,-6.73238900,0.37205470
0.99999993,-6.55048200,0.51214750
1.24999991,-6.32706600,0.70443170
1.49999990,-6.06214100,0.85490170
1.74999988,-5.78134500,1.08350600
1.99999986,-5.47491100,1.34812600
2.24999984,-5.17336100,1.68569200
2.49999983,-4.83060600,2.12184100
2.74999981,-4.51349000,2.61018200
2.99999979,-4.17073600,3.16048100
3.24999978,-3.85362000,3.76785500
3.49999976,-3.47942900,4.41185400
3.74999974,-3.14705200,5.08179700
3.99999972,-2.76248300,5.75143400
4.24999971,-2.39866900,6.42656600
4.49999969,-1.98296900,7.07026000
4.74999967,-1.57276300,7.62086400
4.99999966,-1.13081400,8.02069400
5.24999964,-0.64247350,8.31675000
5.49999962,-0.14375530,8.42052300
5.74999960,0.43828590,8.26455900
5.99999959,1.07740200,7.88548400
6.24999957,1.64387700,7.43895700
6.49999955,2.19448200,7.22103500
6.74999953,2.66206800,7.14839500
6.99999952,3.11958200,7.03912800
7.24999950,3.50384600,7.05988300
7.49999948,3.91435700,6.95092200
7.74999947,4.26260500,6.78488600
7.99999945,4.60566500,6.48882900
8.24999943,4.98473900,6.11494300
8.49999941,5.28629000,5.59577600
8.74999940,5.63942100,4.91026700
8.99999938,5.98248100,4.16249500
9.24999936,6.26297100,3.25387600
9.49999935,6.56452200,2.37638900
9.74999933,6.79312700,1.53003300
9.99999931,6.90208800,0.84452440
10.24999929,6.92803000,0.29941400
10.49999928,6.91246500,-0.07447198
10.74999926,6.80350400,-0.29788790
10.99999924,6.62678500,-0.47430100
11.24999922,6.42931300,-0.61958250
11.49999921,6.15401000,-0.79630080
11.74999919,5.88908500,-1.00903400
11.99999917,5.60829000,-1.26358200
12.24999916,5.27591200,-1.55445000
12.49999914,4.93285300,-1.97503400
12.74999912,4.61085300,-2.45788000
12.99999910,4.28854800,-2.99261400
13.24999909,3.94030000,-3.59510400
13.49999907,3.60273500,-4.21804400
13.74999905,3.26486400,-4.85685500
13.99999904,2.88548400,-5.51092700
14.24999902,2.53235200,-6.18086900
14.49999900,2.14778400,-6.80380900
14.74999898,1.70095200,-7.39592200
14.99999897,1.26968600,-7.82688300
15.24999895,0.81247710,-8.19039200
15.49999893,0.30826510,-8.33567300
15.74999891,-0.20083020,-8.25265500
15.99999890,-0.80362590,-7.93065500
16.24999888,-1.42717600,-7.48931700
16.49999886,-1.98296900,-7.18807200
16.74999885,-2.48718100,-7.08430000
16.99999883,-2.93920200,-7.01165900
17.24999881,-3.33933600,-6.99090400
17.49999879,-3.74984700,-6.92864100
17.74999878,-4.10297900,-6.80380900
17.99999876,-4.45641600,-6.57032100
18.24999874,-4.80985200,-6.25869800
18.49999873,-5.16298400,-5.80179500
18.74999871,-5.50085400,-5.20479800
18.99999869,-5.81247700,-4.47778000
19.24999867,-6.15034800,-3.64180200
19.49999866,-6.42565000,-2.76431400
19.74999864,-6.70125700,-1.89689900
19.99999862,-6.83097300,-1.10792300
20.24999860,-6.92986200,-0.54175310
20.49999859,-6.93505000,-0.09003785
20.74999857,-6.84135000,0.22158470
20.99999855,-6.70644600,0.42394090
21.24999854,-6.52453900,0.57471620
21.49999852,-6.26480300,0.71999750
21.74999850,-5.99957300,0.89641070
21.99999848,-5.67757300,1.12501500
22.24999847,-5.42302500,1.44701500
22.49999845,-5.09034300,1.77420300
22.74999843,-4.76834300,2.22591900
22.99999841,-4.43047200,2.77102900
23.24999840,-4.08741300,3.30057400
23.49999838,-3.76541300,3.91863000
23.74999836,-3.40159900,4.57789000
23.99999835,-3.06403400,5.24783300
24.24999833,-2.70022000,5.87626600
24.49999831,-2.30527400,6.60297900
24.74999829,-1.86881900,7.20028100
24.99999828,-1.45830800,7.70907100
25.24999826,-1.02704200,8.11927700
25.49999824,-0.51275790,8.35307000
25.74999823,-0.01892321,8.42052300
25.99999821,0.58387260,8.19191700
26.24999819,1.18636300,7.72982500
26.49999817,1.77878200,7.36631700
26.74999816,2.29337100,7.19509200
26.99999814,2.77133400,7.13282900
27.24999812,3.20260000,7.07544900
27.49999810,3.59235700,7.03912800
27.74999809,3.97173700,6.93535600
27.99999807,4.34043500,6.71224500
28.24999805,4.69906000,6.43694300
28.49999804,5.04730800,6.01635900
28.74999802,5.41081700,5.46606000
28.99999800,5.72274400,4.75460900
29.24999798,6.06031000,3.96013900
29.49999797,6.34629400,3.06189700
29.74999795,6.62678500,2.15816100
29.99999793,6.79831500,1.35331500
30.24999792,6.90727600,0.70962030
30.49999790,6.92803000,0.21120740
30.74999788,6.90727600,-0.13154680
30.99999786,6.76199500,-0.37052860
31.24999785,6.60603100,-0.53137590
31.49999783,6.36186000,-0.70290560
31.74999781,6.08625300,-0.85856430
31.99999779,5.80576200,-1.04535500
32.24999778,5.49414000,-1.33622300
32.49999776,5.18740100,-1.66341100
32.74999774,4.85502400,-2.09437200
32.99999773,4.53271900,-2.56165300
33.24999771,4.20553000,-3.13789500
33.49999769,3.87284800,-3.73519700
33.74999767,3.54047100,-4.34776000
33.99999766,3.16109100,-5.00732500
34.24999764,2.79727700,-5.67726800
34.49999762,2.44384100,-6.32096200
34.74999761,2.01776300,-6.96496200
34.99999759,1.63350000,-7.46856300
35.24999757,1.15523100,-7.93065500
35.49999755,0.69283360,-8.23190100
35.74999754,0.19930410,-8.34605000
35.99999752,-0.36198260,-8.21114600
36.24999750,-0.95958980,-7.84244900
36.49999748,-1.55689200,-7.40111100
36.74999747,-2.10780100,-7.14656300
36.99999745,-2.59095300,-7.08430000
37.24999743,-3.03778500,-7.01165900
37.49999742,-3.43273100,-6.96496200
37.74999740,-3.80692200,-6.90269800
37.99999738,-4.17073600,-6.73635700
38.24999736,-4.55011600,-6.54956600
38.49999735,-4.90843600,-6.14973700
38.74999733,-5.25149500,-5.65651300
38.99999731,-5.57349500,-5.02289100
39.24999729,-5.90098900,-4.26474200
39.49999728,-6.21780000,-3.41838600
39.74999726,-6.49859600,-2.53052100
39.99999724,-6.72201200,-1.68416500
40.24999723,-6.88285900,-0.97790250
40.49999721,-6.94542800,-0.41203760
40.74999719,-6.91948500,-0.02777439
40.99999717,-6.81540700,0.27865950
41.24999716,-6.66982000,0.47063850
41.49999714,-6.45678200,0.61622510
41.74999712,-6.21261100,0.78226100
41.99999711,-5.93212000,0.97454520
42.24999709,-5.64125300,1.21322200
42.49999707,-5.33970200,1.49371300
42.74999705,-5.00213600,1.88316400
42.99999704,-4.67464300,2.34006800
43.24999702,-4.36820900,2.85923600
43.49999700,-4.02514900,3.45653800
43.74999698,-3.67690100,4.06910000
43.99999697,-3.33414700,4.73904300
44.24999695,-2.98589900,5.41386900
44.49999693,-2.60651900,6.10975500
44.74999692,-2.22225600,6.75375400
44.99999690,-1.79099000,7.30924200
45.24999688,-1.37010100,7.78690000
45.49999686,-0.89183250,8.21786100
45.74999685,-0.38273720,8.42052300
45.99999683,0.14222930,8.36344700
46.24999681,0.72915390,8.09852200
46.49999680,1.34751600,7.64161900
46.74999678,1.91399100,7.30405300
46.99999676,2.42308600,7.17952600
47.24999674,2.89067300,7.11207400
47.49999673,3.29599500,7.07544900
47.74999671,3.69094100,7.03912800
47.99999669,4.09107500,6.87309200
48.24999667,4.44451200,6.64967600
48.49999666,4.79764400,6.31760500
48.74999664,5.15108100,5.87626600
48.99999662,5.47338500,5.31528500
49.24999661,5.80057400,4.56232500
49.49999659,6.11769000,3.71596900
49.74999657,6.43969000,2.84367000
49.99999655,6.66310600,1.98174800
50.24999654,6.82425800,1.18727900
