Time,Channel B,Channel C
(ms),(V),(V)

-0.49999997,-8.59418900,-7.54059300
-0.24999998,-9.86326400,-2.09742400
0.00000000,-10.05250000,0.01037724
0.24999998,-9.49639800,0.54511050
0.49999997,-8.56305700,0.82834820
0.74999995,-7.50335700,1.26846500
0.99999993,-6.31791000,1.99243100
1.24999991,-5.21670100,3.51300200
1.49999990,-4.26199500,5.97729200
1.74999988,-3.36039500,8.97631500
1.99999986,-2.47894000,12.15419000
2.24999984,-1.58771800,15.11110000
2.49999983,-0.64338910,17.53388000
2.74999981,0.46819680,19.07520000
2.99999979,1.83188900,19.07520000
3.24999978,3.21633500,18.36223000
3.49999976,4.29678900,18.24686000
3.74999974,5.28323700,17.33488000
3.99999972,6.30020800,15.49933000
4.24999971,7.45452300,11.83921000
4.49999969,8.93358500,6.16591400
4.74999967,9.96154300,1.34232700
4.99999966,9.90904600,-0.13673540
5.24999964,9.30045100,-0.58784030
5.49999962,8.34574500,-0.87046750
5.74999960,7.25491400,-1.33195000
5.99999959,6.10120900,-2.23415900
6.24999957,5.02075400,-3.89085600
6.49999955,4.05567100,-6.46013900
6.74999953,3.21633500,-9.52264700
6.99999952,2.34586700,-12.62666000
7.24999950,1.43328000,-15.51032000
7.49999948,0.44744230,-17.81773000
7.74999947,-0.67513120,-19.11793000
7.99999945,-2.06995500,-18.86644000
8.24999943,-3.43364700,-18.24747000
8.49999941,-4.48235800,-18.11134000
8.74999940,-5.44744200,-17.14626000
8.99999938,-6.45464500,-15.00733000
9.24999936,-7.68160200,-10.98034000
9.49999935,-9.15028700,-5.17030900
9.74999933,-10.05250000,-0.93334140
9.99999931,-9.86326400,0.29361490
10.24999929,-9.18202900,0.60798440
10.49999928,-8.20595700,0.96447320
10.74999926,-7.05225200,1.44671000
10.99999924,-5.88817000,2.45391300
11.24999922,-4.84983500,4.28885400
11.49999921,-3.92687100,7.02600400
11.74999919,-3.04541600,10.13002000
11.99999917,-2.15419400,13.25540000
12.24999916,-1.26236100,16.07618000
12.49999914,-0.23440360,18.22610000
12.74999912,0.92967890,19.26444000
12.99999910,2.35624500,18.74008000
13.24999909,3.67842700,18.26822000
13.49999907,4.66426600,17.98498000
13.74999905,5.67085800,16.84166000
13.99999904,6.70980400,14.36699000
14.24999902,7.94713700,9.98351900
14.49999900,9.40544500,4.00561600
14.74999898,10.04517000,0.55548780
14.99999897,9.71981400,-0.37785380
15.24999895,8.95434000,-0.71358810
15.49999893,7.93676000,-1.00720300
15.74999891,6.79343200,-1.57306800
15.99999890,5.68184600,-2.69564200
16.24999888,4.64290000,-4.70882700
16.49999886,3.76205600,-7.50885100
16.74999885,2.94408500,-10.61287000
16.99999883,1.99975600,-13.72787000
17.24999881,1.09754600,-16.39116000
17.49999879,0.06958857,-18.38359000
17.74999878,-1.12623600,-19.21255000
17.99999876,-2.56317900,-18.52033000
18.24999874,-3.81150000,-18.18459000
18.49999873,-4.81809300,-17.69198000
18.74999871,-5.80393100,-16.41253000
18.99999869,-6.86363100,-13.87437000
19.24999867,-8.17482600,-9.18691300
19.49999866,-9.59101500,-3.29324900
19.74999864,-10.08363000,-0.29422540
19.99999862,-9.66426600,0.42974000
20.24999860,-8.86704900,0.75448660
20.49999859,-7.77621700,1.10059800
20.74999857,-6.65364400,1.75131200
20.99999855,-5.51031600,2.99902300
21.24999854,-4.49273600,5.19045300
21.49999852,-3.58014900,8.11683600
21.74999850,-2.72005800,11.32585000
21.99999848,-1.83921400,14.37737000
22.24999847,-0.91624950,16.95703000
22.49999845,0.18495910,18.77121000
22.74999843,1.39177100,19.25345000
22.99999841,2.88121100,18.48797000
23.24999840,4.03491600,18.27860000
23.49999838,5.02075400,17.53388000
23.74999836,6.04871200,16.01331000
23.99999835,7.10841200,13.06617000
24.24999833,8.49285800,7.81223300
24.49999831,9.78268800,2.33854200
24.74999829,10.00305000,0.07325113
24.99999828,9.48907300,-0.47246980
25.24999826,8.62898300,-0.81858130
25.49999824,7.55951600,-1.18544700
25.74999823,6.40520100,-1.88804800
25.99999821,5.28323700,-3.34574500
26.24999819,4.32853100,-5.68428800
26.49999817,3.42632200,-8.65217900
26.74999816,2.57660800,-11.79832000
26.99999814,1.69576400,-14.80772000
27.24999812,0.73068000,-17.25125000
27.49999810,-0.33939690,-18.87682000
27.74999809,-1.66096900,-19.08680000
27.99999807,-3.06617000,-18.34208000
28.24999805,-4.19912100,-18.24747000
28.49999804,-5.25882100,-17.41912000
28.74999802,-6.19216200,-15.74106000
28.99999800,-7.32511300,-12.36418000
29.24999798,-8.76205500,-6.81662800
29.49999797,-9.94750300,-1.66768400
29.74999795,-9.96825800,0.09400561
29.99999793,-9.38102800,0.58722980
30.24999792,-8.48919500,0.85947990
30.49999790,-7.38798700,1.30020700
30.74999788,-6.21352700,2.11817800
30.99999786,-5.14345000,3.71200100
31.24999785,-4.15761200,6.20803300
31.49999783,-3.29752200,9.26993000
31.74999781,-2.43682100,12.42644000
31.99999779,-1.51385700,15.36320000
32.24999778,-0.51764130,17.75424000
32.49999776,0.58356730,19.13808000
32.74999774,1.94725900,19.01233000
32.99999773,3.37382500,18.33109000
33.24999771,4.40178300,18.19436000
33.49999769,5.41936300,17.24026000
33.74999767,6.39482400,15.23746000
33.99999766,7.59064800,11.35698000
34.24999764,9.04895600,5.62080300
34.49999762,10.02442000,1.12196300
34.74999761,9.86692700,-0.22036380
34.99999759,9.18508100,-0.62934930
35.24999757,8.24075200,-0.92296420
35.49999755,7.12916600,-1.37406900
35.74999754,5.99621500,-2.29703300
35.99999752,4.91576100,-4.05872300
36.24999750,4.01355100,-6.67012500
36.49999748,3.13270700,-9.79489700
36.74999747,2.28299400,-12.88854000
36.99999745,1.34965200,-15.67818000
37.24999743,0.36381390,-17.92272000
37.49999742,-0.80087900,-19.13869000
37.74999740,-2.19570300,-18.79258000
37.99999738,-3.51727500,-18.18459000
38.24999736,-4.51410100,-18.03809000
38.49999735,-5.51031600,-16.95764000
38.74999733,-6.53827400,-14.73446000
38.99999731,-7.78659500,-10.68673000
39.24999729,-9.23391500,-4.78207800
39.49999728,-10.05250000,-0.80759370
39.74999726,-9.84251000,0.33512390
39.99999724,-9.10816800,0.67085830
40.24999723,-8.10157500,1.00659300
40.49999721,-6.97900100,1.50958400
40.74999719,-5.80393100,2.53754100
40.99999717,-4.76559600,4.52997200
41.24999716,-3.82187800,7.27750000
41.49999714,-3.00329600,10.39250000
41.74999712,-2.08033200,13.56977000
41.99999711,-1.16774500,16.31730000
42.24999709,-0.11903310,18.40435000
42.49999707,1.05603700,19.29557000
42.74999705,2.48260300,18.66622000
42.99999704,3.78281000,18.26822000
43.24999702,4.76925900,17.86961000
43.49999700,5.75509700,16.63167000
43.74999698,6.80380900,14.03125000
43.99999697,8.11500500,9.46954000
44.24999695,9.51043800,3.53375600
44.49999693,10.05555000,0.37724330
44.74999692,9.65694000,-0.40959590
44.99999690,8.89146600,-0.73434260
45.24999688,7.87388600,-1.04871200
45.49999686,6.70980400,-1.64693000
45.74999685,5.59760700,-2.86350900
45.99999683,4.59101400,-4.93956800
46.24999681,3.71993600,-7.81284300
46.49999680,2.84946900,-10.93822000
46.74999678,1.91612700,-14.02149000
46.99999676,1.00354100,-16.66402000
47.24999674,-0.05615920,-18.56245000
47.49999673,-1.28311600,-19.24368000
47.74999671,-2.72005800,-18.47821000
47.99999669,-3.92687100,-18.21634000
48.24999667,-4.94384100,-17.68099000
48.49999666,-5.89854700,-16.24466000
48.74999664,-6.99975600,-13.48675000
48.99999662,-8.33231500,-8.45257000
49.24999661,-9.72713900,-2.74813800
49.49999659,-10.07325000,-0.17885480
49.74999657,-9.60139200,0.48223660
49.99999655,-8.74130200,0.75448660
50.24999654,-7.70296700,1.16347200
