Time,Channel B,Channel C
(ms),(V),(V)

-0.49999997,-8.26944200,-8.82004600
-0.24999998,-9.66426600,-3.02038800
0.00000000,-10.08363000,-0.22036380
0.24999998,-9.62214600,0.46087170
0.49999997,-8.80417500,0.74410940
0.74999995,-7.74447500,1.11158600
0.99999993,-6.60114800,1.78244400
1.24999991,-5.43706500,3.10401700
1.49999990,-4.39873000,5.36930800
1.74999988,-3.55939400,8.33658900
1.99999986,-2.68892700,11.48273000
2.24999984,-1.79709400,14.50311000
2.49999983,-0.82163350,17.09315000
2.74999981,0.22707850,18.84446000
2.99999979,1.49615400,19.23269000
3.24999978,2.96483900,18.42510000
3.49999976,4.10816800,18.27860000
3.74999974,5.09400600,17.51312000
3.99999972,6.10120900,15.87718000
4.24999971,7.18166300,12.84642000
4.49999969,8.59785100,7.48748600
4.74999967,9.82480700,2.10780100
4.99999966,9.99267500,-0.01098767
5.24999964,9.45794100,-0.52435600
5.49999962,8.54535500,-0.81858130
5.74999960,7.48565500,-1.22756700
5.99999959,6.32157200,-2.00341800
6.24999957,5.22036400,-3.39824200
6.49999955,4.25528000,-5.85215500
6.74999953,3.40556700,-8.87254300
6.99999952,2.51373500,-11.95519000
7.24999950,1.64326700,-14.90233000
7.49999948,0.68856060,-17.35625000
7.74999947,-0.42302530,-18.97143000
7.99999945,-1.72384300,-19.08680000
8.24999943,-3.15040900,-18.29996000
8.49999941,-4.20949800,-18.14247000
8.74999940,-5.24844300,-17.31413000
8.99999938,-6.22390400,-15.58418000
9.24999936,-7.38798700,-12.09193000
9.49999935,-8.82492900,-6.55475500
9.74999933,-9.94750300,-1.54193600
9.99999931,-9.95788000,0.15687950
10.24999929,-9.34928600,0.59760710
10.49999928,-8.43669900,0.88084480
10.74999926,-7.32511300,1.32096200
10.99999924,-6.16103000,2.14931000
11.24999922,-5.05921100,3.82737100
11.49999921,-4.13624700,6.38627800
11.74999919,-3.23403700,9.46954000
11.99999917,-2.37394700,12.62605000
12.24999916,-1.46136000,15.49933000
12.49999914,-0.44439020,17.83787000
12.74999912,0.64705160,19.16982000
12.99999910,2.03149800,18.93908000
13.24999909,3.41594400,18.30973000
13.49999907,4.44390200,18.17360000
13.74999905,5.45110500,17.18777000
13.99999904,6.45769700,15.07997000
14.24999902,7.68526400,11.07374000
14.49999900,9.10084200,5.26431500
14.74999898,10.01343000,1.02734700
14.99999897,9.85654900,-0.26248320
15.24999895,9.17470400,-0.66109140
15.49999893,8.17787800,-0.92296420
15.74999891,7.08704700,-1.42656600
15.99999890,5.91258700,-2.37028400
16.24999888,4.89500700,-4.20583600
16.49999886,3.95067700,-6.85874700
16.74999885,3.10096500,-9.93163200
16.99999883,2.23049700,-13.07777000
17.24999881,1.29715500,-15.85643000
17.49999879,0.32169460,-18.02710000
17.74999878,-0.84299840,-19.14968000
17.99999876,-2.23782200,-18.69857000
18.24999874,-3.56977200,-18.16384000
18.49999873,-4.57697500,-18.01673000
18.74999871,-5.57319000,-16.95764000
18.99999869,-6.60114800,-14.57697000
19.24999867,-7.87083400,-10.36137000
19.49999866,-9.34928600,-4.42558900
19.74999864,-10.09401000,-0.67146870
19.99999862,-9.82175500,0.34550120
20.24999860,-9.07703600,0.69161270
20.49999859,-8.02771300,0.97485040
20.74999857,-6.89476300,1.54132600
20.99999855,-5.74105700,2.62117000
21.24999854,-4.71309900,4.64534200
21.49999852,-3.80051300,7.49786300
21.74999850,-2.91966800,10.63362000
21.99999848,-2.02783500,13.73764000
22.24999847,-1.11524800,16.45342000
22.49999845,-0.07691368,18.45684000
22.74999843,1.13966500,19.27481000
22.99999841,2.54547700,18.63509000
23.24999840,3.80417500,18.22610000
23.49999838,4.83213300,17.77500000
23.74999836,5.78622900,16.48517000
23.99999835,6.86668300,13.82127000
24.24999833,8.15712400,9.15456000
24.49999831,9.60444400,3.30301500
24.74999829,10.02442000,0.34550120
24.99999828,9.64656400,-0.39860820
25.24999826,8.82859200,-0.73434260
25.49999824,7.81101200,-1.07007700
25.74999823,6.64692900,-1.68843900
25.99999821,5.53473300,-2.95751400
26.24999819,4.51715300,-5.10743500
26.49999817,3.64668500,-7.99108700
26.74999816,2.78659500,-11.12685000
26.99999814,1.89476300,-14.18935000
27.24999812,0.96142110,-16.75864000
27.49999810,-0.11903310,-18.59358000
27.74999809,-1.37773200,-19.20217000
27.99999807,-2.81467500,-18.45745000
28.24999805,-3.96838000,-18.18459000
28.49999804,-4.98596000,-17.52411000
28.74999802,-6.00354100,-16.05604000
28.99999800,-7.06263000,-13.27677000
29.24999798,-8.41594400,-8.18032000
29.49999797,-9.74789400,-2.56989400
29.74999795,-10.07325000,-0.09461604
29.99999793,-9.54889500,0.47185930
30.24999792,-8.69918200,0.79660600
30.49999790,-7.64009300,1.15309500
30.74999788,-6.46502300,1.88743700
30.99999786,-5.37419100,3.26089600
31.24999785,-4.34623300,5.61042600
31.49999783,-3.46477800,8.61982600
31.74999781,-2.59431100,11.74521000
31.99999779,-1.70308900,14.73385000
32.24999778,-0.74838230,17.28238000
32.49999776,0.33207180,18.95983000
32.74999774,1.63289000,19.19057000
32.99999773,3.12232900,18.39397000
33.24999771,4.17104100,18.25723000
33.49999769,5.19899900,17.40813000
33.74999767,6.17445900,15.74045000
33.99999766,7.30741000,12.46856000
34.24999764,8.74435300,6.92101100
34.49999762,9.92980100,1.78244400
34.74999761,9.97192000,-0.09461604
34.99999759,9.38408000,-0.54572090
35.24999757,8.46111600,-0.82895860
35.49999755,7.39164900,-1.24832100
35.74999754,6.27945300,-2.06629200
35.99999752,5.14650200,-3.59724100
36.24999750,4.21316100,-6.08289600
36.49999748,3.33231600,-9.06116500
36.74999747,2.45086100,-12.22806000
36.99999745,1.55902800,-15.14345000
37.24999743,0.61530950,-17.51373000
37.49999742,-0.50726410,-18.97143000
37.74999740,-1.83921400,-18.93969000
37.99999738,-3.23403700,-18.23709000
38.24999736,-4.27298300,-18.17422000
38.49999735,-5.32169400,-17.30375000
38.74999733,-6.31791000,-15.47918000
38.99999731,-7.48260300,-11.74582000
39.24999729,-8.90916800,-6.08289600
39.49999728,-10.00000000,-1.32157200
39.74999726,-9.94750300,0.18862170
39.99999724,-9.30777600,0.61836160
40.24999723,-8.33231500,0.91197660
40.49999721,-7.20974200,1.37345900
40.74999719,-6.05603700,2.26468100
40.99999717,-5.01770200,4.01599300
41.24999716,-4.03125400,6.63777300
41.49999714,-3.16078600,9.76315500
41.74999712,-2.27994100,12.88793000
41.99999711,-1.35697700,15.76181000
42.24999709,-0.38090590,18.00574000
42.49999707,0.77279940,19.23269000
42.74999705,2.15724600,18.85545000
42.99999704,3.49957300,18.25723000
43.24999702,4.51715300,18.11073000
43.49999700,5.52435600,17.05164000
43.74999698,6.55231300,14.78635000
43.99999697,7.77927000,10.63362000
44.24999695,9.22720100,4.73995800
44.49999693,10.04517000,0.76547430
44.74999692,9.80405300,-0.31497990
44.99999690,9.06971100,-0.65071420
45.24999688,8.08387300,-0.94432910
45.49999686,6.97167600,-1.45769700
45.74999685,5.86009000,-2.51739700
45.99999683,4.76925900,-4.39445700
46.24999681,3.86704900,-7.14198500
46.49999680,3.01733600,-10.25638000
46.74999678,2.13649100,-13.36040000
46.99999676,1.22390400,-16.10792000
47.24999674,0.21670130,-18.20535000
47.49999673,-0.95836890,-19.20217000
47.74999671,-2.43682100,-18.68819000
47.99999669,-3.71688400,-18.20535000
48.24999667,-4.67159100,-17.88060000
48.49999666,-5.65742900,-16.66402000
48.74999664,-6.75863700,-14.22049000
48.99999662,-8.01733600,-9.79489700
49.24999661,-9.46465600,-3.87010100
49.49999659,-10.06287000,-0.48284700
49.74999657,-9.75888200,0.40898550
49.99999655,-8.98242000,0.69161270
50.24999654,-7.94408500,1.03772400
